time,voltage
0.003,-0.065
0.006,-0.065
0.008,-0.065
0.011,-0.065
0.014,-0.065
0.017,-0.065
0.019,-0.065
0.022,-0.08
0.025,-0.08
0.028,-0.085
0.031,-0.085
0.033,-0.075
0.036,-0.07
0.039,-0.07
0.042,-0.065
0.044,-0.055
0.047,-0.05
0.05,-0.05
0.053,-0.04
0.056,-0.04
0.058,-0.055
0.061,-0.075
0.064,-0.08
0.067,-0.085
0.069,-0.07
0.072,-0.08
0.075,-0.08
0.078,-0.09
0.081,-0.095
0.083,-0.09
0.086,-0.095
0.089,-0.11
0.092,-0.12
0.094,-0.145
0.097,-0.135
0.1,-0.105
0.103,-0.095
0.106,-0.105
0.108,-0.12
0.111,-0.135
0.114,-0.125
0.117,-0.125
0.119,-0.115
0.122,-0.115
0.125,-0.125
0.128,-0.14
0.131,-0.14
0.133,-0.13
0.136,-0.125
0.139,-0.14
0.142,-0.145
0.144,-0.15
0.147,-0.15
0.15,-0.13
0.153,-0.115
0.156,-0.125
0.158,-0.135
0.161,-0.16
0.164,-0.195
0.167,-0.2
0.169,-0.205
0.172,-0.225
0.175,-0.255
0.178,-0.3
0.181,-0.29
0.183,-0.235
0.186,-0.13
0.189,-0.035
0.192,0.05
0.194,0.12
0.197,0.2
0.2,0.31
0.203,0.435
0.206,0.535
0.208,0.58
0.211,0.475
0.214,0.21
0.217,-0.085
0.219,-0.23
0.222,-0.25
0.225,-0.215
0.228,-0.18
0.231,-0.185
0.233,-0.16
0.236,-0.15
0.239,-0.15
0.242,-0.18
0.244,-0.18
0.247,-0.16
0.25,-0.165
0.253,-0.17
0.256,-0.165
0.258,-0.185
0.261,-0.185
0.264,-0.185
0.267,-0.17
0.269,-0.16
0.272,-0.155
0.275,-0.175
0.278,-0.195
0.281,-0.185
0.283,-0.185
0.286,-0.175
0.289,-0.175
0.292,-0.195
0.294,-0.19
0.297,-0.18
0.3,-0.165
0.303,-0.17
0.306,-0.17
0.308,-0.17
0.311,-0.19
0.314,-0.185
0.317,-0.18
0.319,-0.17
0.322,-0.175
0.325,-0.19
0.328,-0.2
0.331,-0.195
0.333,-0.185
0.336,-0.17
0.339,-0.17
0.342,-0.185
0.344,-0.195
0.347,-0.175
0.35,-0.2
0.353,-0.185
0.356,-0.18
0.358,-0.185
0.361,-0.205
0.364,-0.19
0.367,-0.18
0.369,-0.185
0.372,-0.2
0.375,-0.215
0.378,-0.205
0.381,-0.21
0.383,-0.2
0.386,-0.185
0.389,-0.205
0.392,-0.2
0.394,-0.21
0.397,-0.205
0.4,-0.185
0.403,-0.185
0.406,-0.2
0.408,-0.215
0.411,-0.225
0.414,-0.22
0.417,-0.2
0.419,-0.2
0.422,-0.215
0.425,-0.225
0.428,-0.235
0.431,-0.245
0.433,-0.24
0.436,-0.24
0.439,-0.24
0.442,-0.245
0.444,-0.26
0.447,-0.26
0.45,-0.265
0.453,-0.265
0.456,-0.28
0.458,-0.285
0.461,-0.295
0.464,-0.295
0.467,-0.3
0.469,-0.29
0.472,-0.3
0.475,-0.315
0.478,-0.315
0.481,-0.315
0.483,-0.315
0.486,-0.31
0.489,-0.31
0.492,-0.325
0.494,-0.33
0.497,-0.325
0.5,-0.315
0.503,-0.305
0.506,-0.305
0.508,-0.29
0.511,-0.29
0.514,-0.275
0.517,-0.27
0.519,-0.245
0.522,-0.24
0.525,-0.25
0.528,-0.25
0.531,-0.235
0.533,-0.22
0.536,-0.195
0.539,-0.19
0.542,-0.19
0.544,-0.19
0.547,-0.18
0.55,-0.16
0.553,-0.145
0.556,-0.15
0.558,-0.16
0.561,-0.16
0.564,-0.155
0.567,-0.145
0.569,-0.14
0.572,-0.16
0.575,-0.15
0.578,-0.175
0.581,-0.17
0.583,-0.16
0.586,-0.16
0.589,-0.15
0.592,-0.155
0.594,-0.16
0.597,-0.17
0.6,-0.155
0.603,-0.155
0.606,-0.15
0.608,-0.165
0.611,-0.175
0.614,-0.165
0.617,-0.165
0.619,-0.16
0.622,-0.16
0.625,-0.18
0.628,-0.175
0.631,-0.185
0.633,-0.165
0.636,-0.15
0.639,-0.15
0.642,-0.17
0.644,-0.185
0.647,-0.195
0.65,-0.19
0.653,-0.19
0.656,-0.185
0.658,-0.19
0.661,-0.21
0.664,-0.195
0.667,-0.19
0.669,-0.18
0.672,-0.205
0.675,-0.215
0.678,-0.225
0.681,-0.21
0.683,-0.205
0.686,-0.195
0.689,-0.2
0.692,-0.195
0.694,-0.21
0.697,-0.215
0.7,-0.205
0.703,-0.185
0.706,-0.195
0.708,-0.195
0.711,-0.22
0.714,-0.22
0.717,-0.21
0.719,-0.215
0.722,-0.22
0.725,-0.22
0.728,-0.225
0.731,-0.21
0.733,-0.2
0.736,-0.21
0.739,-0.225
0.742,-0.23
0.744,-0.225
0.747,-0.22
0.75,-0.23
0.753,-0.21
0.756,-0.215
0.758,-0.215
0.761,-0.23
0.764,-0.215
0.767,-0.22
0.769,-0.205
0.772,-0.205
0.775,-0.21
0.778,-0.215
0.781,-0.225
0.783,-0.215
0.786,-0.215
0.789,-0.215
0.792,-0.225
0.794,-0.225
0.797,-0.225
0.8,-0.205
0.803,-0.195
0.806,-0.21
0.808,-0.21
0.811,-0.215
0.814,-0.235
0.817,-0.23
0.819,-0.22
0.822,-0.22
0.825,-0.23
0.828,-0.225
0.831,-0.23
0.833,-0.215
0.836,-0.195
0.839,-0.195
0.842,-0.19
0.844,-0.2
0.847,-0.195
0.85,-0.18
0.853,-0.17
0.856,-0.18
0.858,-0.175
0.861,-0.195
0.864,-0.195
0.867,-0.17
0.869,-0.175
0.872,-0.175
0.875,-0.18
0.878,-0.185
0.881,-0.185
0.883,-0.175
0.886,-0.175
0.889,-0.175
0.892,-0.19
0.894,-0.205
0.897,-0.2
0.9,-0.205
0.903,-0.205
0.906,-0.215
0.908,-0.215
0.911,-0.225
0.914,-0.215
0.917,-0.21
0.919,-0.2
0.922,-0.215
0.925,-0.225
0.928,-0.245
0.931,-0.245
0.933,-0.25
0.936,-0.225
0.939,-0.23
0.942,-0.235
0.944,-0.24
0.947,-0.235
0.95,-0.235
0.953,-0.22
0.956,-0.23
0.958,-0.24
0.961,-0.24
0.964,-0.245
0.967,-0.225
0.969,-0.225
0.972,-0.235
0.975,-0.25
0.978,-0.27
0.981,-0.28
0.983,-0.29
0.986,-0.3
0.989,-0.33
0.992,-0.36
0.994,-0.355
0.997,-0.305
1,-0.205
1.003,-0.08
1.006,0.015
1.008,0.065
1.011,0.115
1.014,0.19
1.017,0.3
1.019,0.41
1.022,0.495
1.025,0.485
1.028,0.36
1.031,0.105
1.033,-0.165
1.036,-0.35
1.039,-0.45
1.042,-0.47
1.044,-0.45
1.047,-0.395
1.05,-0.345
1.053,-0.31
1.056,-0.295
1.058,-0.285
1.061,-0.295
1.064,-0.295
1.067,-0.28
1.069,-0.285
1.072,-0.285
1.075,-0.285
1.078,-0.29
1.081,-0.275
1.083,-0.275
1.086,-0.275
1.089,-0.27
1.092,-0.285
1.094,-0.295
1.097,-0.29
1.1,-0.275
1.103,-0.265
1.106,-0.265
1.108,-0.275
1.111,-0.295
1.114,-0.29
1.117,-0.285
1.119,-0.27
1.122,-0.265
1.125,-0.275
1.128,-0.28
1.131,-0.28
1.133,-0.27
1.136,-0.265
1.139,-0.27
1.142,-0.27
1.144,-0.28
1.147,-0.27
1.15,-0.265
1.153,-0.265
1.156,-0.265
1.158,-0.27
1.161,-0.285
1.164,-0.285
1.167,-0.265
1.169,-0.265
1.172,-0.255
1.175,-0.275
1.178,-0.275
1.181,-0.28
1.183,-0.27
1.186,-0.265
1.189,-0.275
1.192,-0.285
1.194,-0.28
1.197,-0.28
1.2,-0.275
1.203,-0.275
1.206,-0.275
1.208,-0.285
1.211,-0.295
1.214,-0.295
1.217,-0.275
1.219,-0.275
1.222,-0.285
1.225,-0.29
1.228,-0.315
1.231,-0.315
1.233,-0.305
1.236,-0.29
1.239,-0.31
1.242,-0.32
1.244,-0.32
1.247,-0.335
1.25,-0.33
1.253,-0.325
1.256,-0.345
1.258,-0.35
1.261,-0.365
1.264,-0.37
1.267,-0.355
1.269,-0.36
1.272,-0.37
1.275,-0.39
1.278,-0.395
1.281,-0.4
1.283,-0.39
1.286,-0.385
1.289,-0.39
1.292,-0.4
1.294,-0.41
1.297,-0.42
1.3,-0.405
1.303,-0.41
1.306,-0.41
1.308,-0.4
1.311,-0.405
1.314,-0.39
1.317,-0.385
1.319,-0.365
1.322,-0.355
1.325,-0.345
1.328,-0.355
1.331,-0.33
1.333,-0.295
1.336,-0.275
1.339,-0.27
1.342,-0.26
1.344,-0.265
1.347,-0.265
1.35,-0.245
1.353,-0.225
1.356,-0.21
1.358,-0.215
1.361,-0.215
1.364,-0.205
1.367,-0.195
1.369,-0.185
1.372,-0.185
1.375,-0.195
1.378,-0.195
1.381,-0.195
1.383,-0.185
1.386,-0.17
1.389,-0.185
1.392,-0.195
1.394,-0.195
1.397,-0.195
1.4,-0.185
1.403,-0.175
1.406,-0.175
1.408,-0.185
1.411,-0.195
1.414,-0.195
1.417,-0.195
1.419,-0.18
1.422,-0.185
1.425,-0.19
1.428,-0.195
1.431,-0.195
1.433,-0.19
1.436,-0.185
1.439,-0.185
1.442,-0.19
1.444,-0.2
1.447,-0.215
1.45,-0.195
1.453,-0.185
1.456,-0.185
1.458,-0.185
1.461,-0.2
1.464,-0.205
1.467,-0.19
1.469,-0.19
1.472,-0.2
1.475,-0.2
1.478,-0.195
1.481,-0.22
1.483,-0.205
1.486,-0.19
1.489,-0.2
1.492,-0.22
1.494,-0.23
1.497,-0.21
1.5,-0.205
1.503,-0.2
1.506,-0.195
1.508,-0.22
1.511,-0.225
1.514,-0.225
1.517,-0.215
1.519,-0.205
1.522,-0.205
1.525,-0.215
1.528,-0.225
1.531,-0.22
1.533,-0.225
1.536,-0.195
1.539,-0.215
1.542,-0.22
1.544,-0.215
1.547,-0.225
1.55,-0.215
1.553,-0.21
1.556,-0.21
1.558,-0.225
1.561,-0.23
1.564,-0.22
1.567,-0.21
1.569,-0.205
1.572,-0.2
1.575,-0.205
1.578,-0.22
1.581,-0.23
1.583,-0.215
1.586,-0.205
1.589,-0.2
1.592,-0.23
1.594,-0.22
1.597,-0.215
1.6,-0.205
1.603,-0.2
1.606,-0.205
1.608,-0.22
1.611,-0.22
1.614,-0.225
1.617,-0.205
1.619,-0.2
1.622,-0.2
1.625,-0.21
1.628,-0.23
1.631,-0.215
1.633,-0.2
1.636,-0.2
1.639,-0.205
1.642,-0.21
1.644,-0.215
1.647,-0.22
1.65,-0.205
1.653,-0.2
1.656,-0.195
1.658,-0.205
1.661,-0.205
1.664,-0.205
1.667,-0.18
1.669,-0.17
1.672,-0.19
1.675,-0.19
1.678,-0.2
1.681,-0.185
1.683,-0.165
1.686,-0.145
1.689,-0.145
1.692,-0.17
1.694,-0.175
1.697,-0.17
1.7,-0.165
1.703,-0.15
1.706,-0.16
1.708,-0.175
1.711,-0.19
1.714,-0.19
1.717,-0.185
1.719,-0.185
1.722,-0.175
1.725,-0.195
1.728,-0.215
1.731,-0.205
1.733,-0.2
1.736,-0.195
1.739,-0.205
1.742,-0.21
1.744,-0.22
1.747,-0.215
1.75,-0.21
1.753,-0.205
1.756,-0.2
1.758,-0.21
1.761,-0.22
1.764,-0.22
1.767,-0.22
1.769,-0.2
1.772,-0.205
1.775,-0.215
1.778,-0.225
1.781,-0.22
1.783,-0.215
1.786,-0.205
1.789,-0.22
1.792,-0.225
1.794,-0.24
1.797,-0.26
1.8,-0.28
1.803,-0.3
1.806,-0.345
1.808,-0.375
1.811,-0.345
1.814,-0.26
1.817,-0.125
1.819,0.025
1.822,0.145
1.825,0.26
1.828,0.375
1.831,0.505
1.833,0.635
1.836,0.705
1.839,0.61
1.842,0.32
1.844,-0.045
1.847,-0.25
1.85,-0.27
1.853,-0.24
1.856,-0.24
1.858,-0.25
1.861,-0.255
1.864,-0.245
1.867,-0.245
1.869,-0.245
1.872,-0.255
1.875,-0.26
1.878,-0.26
1.881,-0.27
1.883,-0.245
1.886,-0.245
1.889,-0.25
1.892,-0.265
1.894,-0.27
1.897,-0.27
1.9,-0.265
1.903,-0.26
1.906,-0.26
1.908,-0.27
1.911,-0.28
1.914,-0.28
1.917,-0.27
1.919,-0.255
1.922,-0.265
1.925,-0.28
1.928,-0.29
1.931,-0.275
1.933,-0.265
1.936,-0.255
1.939,-0.26
1.942,-0.26
1.944,-0.28
1.947,-0.28
1.95,-0.265
1.953,-0.26
1.956,-0.255
1.958,-0.26
1.961,-0.275
1.964,-0.27
1.967,-0.275
1.969,-0.265
1.972,-0.265
1.975,-0.27
1.978,-0.28
1.981,-0.285
1.983,-0.28
1.986,-0.255
1.989,-0.27
1.992,-0.28
1.994,-0.29
1.997,-0.29
2,-0.27
2.003,-0.27
2.006,-0.285
2.008,-0.3
2.011,-0.3
2.014,-0.3
2.017,-0.295
2.019,-0.275
2.022,-0.295
2.025,-0.3
2.028,-0.31
2.031,-0.31
2.033,-0.315
2.036,-0.31
2.039,-0.31
2.042,-0.335
2.044,-0.345
2.047,-0.355
2.05,-0.35
2.053,-0.345
2.056,-0.36
2.058,-0.37
2.061,-0.375
2.064,-0.385
2.067,-0.37
2.069,-0.37
2.072,-0.385
2.075,-0.4
2.078,-0.415
2.081,-0.405
2.083,-0.41
2.086,-0.39
2.089,-0.405
2.092,-0.41
2.094,-0.425
2.097,-0.42
2.1,-0.41
2.103,-0.405
2.106,-0.4
2.108,-0.4
2.111,-0.405
2.114,-0.385
2.117,-0.365
2.119,-0.345
2.122,-0.335
2.125,-0.325
2.128,-0.31
2.131,-0.295
2.133,-0.275
2.136,-0.255
2.139,-0.25
2.142,-0.24
2.144,-0.245
2.147,-0.23
2.15,-0.205
2.153,-0.2
2.156,-0.2
2.158,-0.205
2.161,-0.21
2.164,-0.22
2.167,-0.195
2.169,-0.19
2.172,-0.2
2.175,-0.2
2.178,-0.21
2.181,-0.2
2.183,-0.19
2.186,-0.175
2.189,-0.2
2.192,-0.205
2.194,-0.21
2.197,-0.2
2.2,-0.2
2.203,-0.18
2.206,-0.19
2.208,-0.19
2.211,-0.205
2.214,-0.205
2.217,-0.195
2.219,-0.185
2.222,-0.19
2.225,-0.19
2.228,-0.21
2.231,-0.21
2.233,-0.205
2.236,-0.205
2.239,-0.2
2.242,-0.215
2.244,-0.225
2.247,-0.21
2.25,-0.21
2.253,-0.21
2.256,-0.215
2.258,-0.225
2.261,-0.225
2.264,-0.23
2.267,-0.21
2.269,-0.21
2.272,-0.23
2.275,-0.25
2.278,-0.25
2.281,-0.245
2.283,-0.23
2.286,-0.215
2.289,-0.23
2.292,-0.24
2.294,-0.245
2.297,-0.245
2.3,-0.24
2.303,-0.215
2.306,-0.225
2.308,-0.24
2.311,-0.24
2.314,-0.245
2.317,-0.24
2.319,-0.23
2.322,-0.235
2.325,-0.24
2.328,-0.23
2.331,-0.25
2.333,-0.225
2.336,-0.215
2.339,-0.23
2.342,-0.24
2.344,-0.25
2.347,-0.265
2.35,-0.23
2.353,-0.22
2.356,-0.235
2.358,-0.225
2.361,-0.235
2.364,-0.235
2.367,-0.225
2.369,-0.225
2.372,-0.215
2.375,-0.225
2.378,-0.235
2.381,-0.23
2.383,-0.225
2.386,-0.225
2.389,-0.225
2.392,-0.225
2.394,-0.23
2.397,-0.23
2.4,-0.215
2.403,-0.21
2.406,-0.225
2.408,-0.24
2.411,-0.235
2.414,-0.24
2.417,-0.225
2.419,-0.215
2.422,-0.22
2.425,-0.22
2.428,-0.23
2.431,-0.23
2.433,-0.205
2.436,-0.2
2.439,-0.205
2.442,-0.195
2.444,-0.21
2.447,-0.205
2.45,-0.19
2.453,-0.185
2.456,-0.2
2.458,-0.195
2.461,-0.2
2.464,-0.19
2.467,-0.17
2.469,-0.14
2.472,-0.165
2.475,-0.165
2.478,-0.185
2.481,-0.18
2.483,-0.17
2.486,-0.15
2.489,-0.165
2.492,-0.18
2.494,-0.2
2.497,-0.21
2.5,-0.21
2.503,-0.185
2.506,-0.19
2.508,-0.2
2.511,-0.215
2.514,-0.22
2.517,-0.21
2.519,-0.195
2.522,-0.205
2.525,-0.22
2.528,-0.225
2.531,-0.23
2.533,-0.22
2.536,-0.21
2.539,-0.21
2.542,-0.23
2.544,-0.235
2.547,-0.23
2.55,-0.225
2.553,-0.215
2.556,-0.22
2.558,-0.22
2.561,-0.23
2.564,-0.24
2.567,-0.22
2.569,-0.225
2.572,-0.235
2.575,-0.25
2.578,-0.28
2.581,-0.305
2.583,-0.325
2.586,-0.345
2.589,-0.375
2.592,-0.415
2.594,-0.425
2.597,-0.385
2.6,-0.295
2.603,-0.18
2.606,-0.065
2.608,0.035
2.611,0.13
2.614,0.24
2.617,0.37
2.619,0.495
2.622,0.61
2.625,0.655
2.628,0.545
2.631,0.23
2.633,-0.105
2.636,-0.28
2.639,-0.285
2.642,-0.255
2.644,-0.255
2.647,-0.26
2.65,-0.23
2.653,-0.22
2.656,-0.245
2.658,-0.255
2.661,-0.26
2.664,-0.25
2.667,-0.235
2.669,-0.245
2.672,-0.245
2.675,-0.26
2.678,-0.265
2.681,-0.265
2.683,-0.26
2.686,-0.24
2.689,-0.245
2.692,-0.26
2.694,-0.27
2.697,-0.27
2.7,-0.255
2.703,-0.255
2.706,-0.25
2.708,-0.265
2.711,-0.27
2.714,-0.27
2.717,-0.265
2.719,-0.25
2.722,-0.245
2.725,-0.265
2.728,-0.27
2.731,-0.26
2.733,-0.255
2.736,-0.245
2.739,-0.25
2.742,-0.26
2.744,-0.27
2.747,-0.26
2.75,-0.255
2.753,-0.25
2.756,-0.255
2.758,-0.255
2.761,-0.275
2.764,-0.27
2.767,-0.265
2.769,-0.26
2.772,-0.26
2.775,-0.275
2.778,-0.27
2.781,-0.26
2.783,-0.245
2.786,-0.255
2.789,-0.265
2.792,-0.265
2.794,-0.27
2.797,-0.265
2.8,-0.26
2.803,-0.27
2.806,-0.265
2.808,-0.27
2.811,-0.28
2.814,-0.285
2.817,-0.28
2.819,-0.285
2.822,-0.29
2.825,-0.31
2.828,-0.305
2.831,-0.3
2.833,-0.3
2.836,-0.31
2.839,-0.325
2.842,-0.34
2.844,-0.34
2.847,-0.325
2.85,-0.32
2.853,-0.355
2.856,-0.36
2.858,-0.38
2.861,-0.385
2.864,-0.375
2.867,-0.365
2.869,-0.375
2.872,-0.385
2.875,-0.39
2.878,-0.395
2.881,-0.385
2.883,-0.375
2.886,-0.375
2.889,-0.375
2.892,-0.38
2.894,-0.365
2.897,-0.345
2.9,-0.335
2.903,-0.315
2.906,-0.31
2.908,-0.305
2.911,-0.29
2.914,-0.27
2.917,-0.255
2.919,-0.25
2.922,-0.245
2.925,-0.235
2.928,-0.235
2.931,-0.225
2.933,-0.22
2.936,-0.195
2.939,-0.215
2.942,-0.23
2.944,-0.215
2.947,-0.205
2.95,-0.195
2.953,-0.2
2.956,-0.195
2.958,-0.195
2.961,-0.205
2.964,-0.195
2.967,-0.18
2.969,-0.19
2.972,-0.205
2.975,-0.21
2.978,-0.205
2.981,-0.18
2.983,-0.185
2.986,-0.19
2.989,-0.205
2.992,-0.215
2.994,-0.215
2.997,-0.215
3,-0.19
3.003,-0.21
3.006,-0.2
3.008,-0.215
3.011,-0.22
3.014,-0.225
3.017,-0.215
3.019,-0.215
3.022,-0.23
3.025,-0.225
3.028,-0.225
3.031,-0.21
3.033,-0.21
3.036,-0.215
3.039,-0.23
3.042,-0.235
3.044,-0.23
3.047,-0.22
3.05,-0.215
3.053,-0.23
3.056,-0.235
3.058,-0.25
3.061,-0.245
3.064,-0.24
3.067,-0.22
3.069,-0.23
3.072,-0.23
3.075,-0.235
3.078,-0.24
3.081,-0.235
3.083,-0.22
3.086,-0.23
3.089,-0.24
3.092,-0.255
3.094,-0.245
3.097,-0.235
3.1,-0.22
3.103,-0.23
3.106,-0.24
3.108,-0.25
3.111,-0.255
3.114,-0.24
3.117,-0.225
3.119,-0.23
3.122,-0.235
3.125,-0.24
3.128,-0.245
3.131,-0.235
3.133,-0.23
3.136,-0.235
3.139,-0.24
3.142,-0.245
3.144,-0.235
3.147,-0.235
3.15,-0.23
3.153,-0.24
3.156,-0.235
3.158,-0.245
3.161,-0.25
3.164,-0.23
3.167,-0.21
3.169,-0.23
3.172,-0.235
3.175,-0.245
3.178,-0.25
3.181,-0.245
3.183,-0.23
3.186,-0.23
3.189,-0.235
3.192,-0.25
3.194,-0.25
3.197,-0.24
3.2,-0.225
3.203,-0.23
3.206,-0.235
3.208,-0.24
3.211,-0.245
3.214,-0.24
3.217,-0.225
3.219,-0.225
3.222,-0.23
3.225,-0.23
3.228,-0.225
3.231,-0.205
3.233,-0.21
3.236,-0.22
3.239,-0.205
3.242,-0.22
3.244,-0.22
3.247,-0.21
3.25,-0.19
3.253,-0.18
3.256,-0.18
3.258,-0.185
3.261,-0.19
3.264,-0.19
3.267,-0.185
3.269,-0.205
3.272,-0.2
3.275,-0.22
3.278,-0.22
3.281,-0.22
3.283,-0.21
3.286,-0.225
3.289,-0.22
3.292,-0.24
3.294,-0.245
3.297,-0.235
3.3,-0.23
3.303,-0.245
3.306,-0.245
3.308,-0.25
3.311,-0.255
3.314,-0.23
3.317,-0.225
3.319,-0.23
3.322,-0.245
3.325,-0.255
3.328,-0.265
3.331,-0.255
3.333,-0.245
3.336,-0.26
3.339,-0.25
3.342,-0.26
3.344,-0.27
3.347,-0.24
3.35,-0.245
3.353,-0.25
3.356,-0.25
3.358,-0.25
3.361,-0.265
3.364,-0.255
3.367,-0.245
3.369,-0.255
3.372,-0.265
3.375,-0.28
3.378,-0.305
3.381,-0.32
3.383,-0.35
3.386,-0.38
3.389,-0.39
3.392,-0.345
3.394,-0.24
3.397,-0.11
3.4,-0.02
3.403,0.04
3.406,0.11
3.408,0.22
3.411,0.35
3.414,0.44
3.417,0.395
3.419,0.155
3.422,-0.17
3.425,-0.38
3.428,-0.41
3.431,-0.355
3.433,-0.32
3.436,-0.305
3.439,-0.3
3.442,-0.295
3.444,-0.295
3.447,-0.285
3.45,-0.3
3.453,-0.31
3.456,-0.305
3.458,-0.305
3.461,-0.295
3.464,-0.27
3.467,-0.27
3.469,-0.285
3.472,-0.305
3.475,-0.31
3.478,-0.3
3.481,-0.29
3.483,-0.275
3.486,-0.285
3.489,-0.285
3.492,-0.305
3.494,-0.29
3.497,-0.29
3.5,-0.285
3.503,-0.285
3.506,-0.29
3.508,-0.3
3.511,-0.295
3.514,-0.285
3.517,-0.275
3.519,-0.29
3.522,-0.295
3.525,-0.275
3.528,-0.285
3.531,-0.285
3.533,-0.26
3.536,-0.27
3.539,-0.265
3.542,-0.285
3.544,-0.29
3.547,-0.295
3.55,-0.28
3.553,-0.29
3.556,-0.295
3.558,-0.3
3.561,-0.31
3.564,-0.305
3.567,-0.295
3.569,-0.3
3.572,-0.28
3.575,-0.29
3.578,-0.305
3.581,-0.29
3.583,-0.285
3.586,-0.305
3.589,-0.31
3.592,-0.315
3.594,-0.305
3.597,-0.295
3.6,-0.29
3.603,-0.295
3.606,-0.3
3.608,-0.305
3.611,-0.325
3.614,-0.31
3.617,-0.3
3.619,-0.31
3.622,-0.335
3.625,-0.34
3.628,-0.35
3.631,-0.355
3.633,-0.34
3.636,-0.35
3.639,-0.365
3.642,-0.38
3.644,-0.4
3.647,-0.385
3.65,-0.38
3.653,-0.39
3.656,-0.4
3.658,-0.405
3.661,-0.405
3.664,-0.405
3.667,-0.415
3.669,-0.415
3.672,-0.42
3.675,-0.415
3.678,-0.425
3.681,-0.41
3.683,-0.395
3.686,-0.385
3.689,-0.405
3.692,-0.395
3.694,-0.395
3.697,-0.375
3.7,-0.37
3.703,-0.375
3.706,-0.375
3.708,-0.37
3.711,-0.36
3.714,-0.345
3.717,-0.32
3.719,-0.305
3.722,-0.305
3.725,-0.3
3.728,-0.285
3.731,-0.275
3.733,-0.26
3.736,-0.245
3.739,-0.245
3.742,-0.25
3.744,-0.255
3.747,-0.245
3.75,-0.23
3.753,-0.235
3.756,-0.245
3.758,-0.255
3.761,-0.255
3.764,-0.225
3.767,-0.23
3.769,-0.235
3.772,-0.24
3.775,-0.25
3.778,-0.245
3.781,-0.225
3.783,-0.215
3.786,-0.22
3.789,-0.24
3.792,-0.25
3.794,-0.255
3.797,-0.245
3.8,-0.24
3.803,-0.235
3.806,-0.245
3.808,-0.255
3.811,-0.25
3.814,-0.235
3.817,-0.23
3.819,-0.25
3.822,-0.26
3.825,-0.275
3.828,-0.28
3.831,-0.275
3.833,-0.26
3.836,-0.27
3.839,-0.255
3.842,-0.265
3.844,-0.255
3.847,-0.265
3.85,-0.26
3.853,-0.265
3.856,-0.265
3.858,-0.275
3.861,-0.27
3.864,-0.265
3.867,-0.255
3.869,-0.255
3.872,-0.265
3.875,-0.275
3.878,-0.29
3.881,-0.275
3.883,-0.26
3.886,-0.27
3.889,-0.265
3.892,-0.27
3.894,-0.265
3.897,-0.265
3.9,-0.25
3.903,-0.265
3.906,-0.265
3.908,-0.27
3.911,-0.27
3.914,-0.265
3.917,-0.255
3.919,-0.26
3.922,-0.255
3.925,-0.27
3.928,-0.27
3.931,-0.285
3.933,-0.265
3.936,-0.26
3.939,-0.265
3.942,-0.27
3.944,-0.265
3.947,-0.26
3.95,-0.25
3.953,-0.265
3.956,-0.265
3.958,-0.27
3.961,-0.265
3.964,-0.255
3.967,-0.245
3.969,-0.255
3.972,-0.275
3.975,-0.275
3.978,-0.275
3.981,-0.255
3.983,-0.255
3.986,-0.26
3.989,-0.265
3.992,-0.285
3.994,-0.28
3.997,-0.265
4,-0.26
4.003,-0.255
4.006,-0.25
4.008,-0.255
4.011,-0.25
4.014,-0.24
4.017,-0.23
4.019,-0.235
4.022,-0.225
4.025,-0.235
4.028,-0.24
4.031,-0.225
4.033,-0.215
4.036,-0.235
4.039,-0.23
4.042,-0.225
4.044,-0.215
4.047,-0.205
4.05,-0.2
4.053,-0.21
4.056,-0.225
4.058,-0.23
4.061,-0.225
4.064,-0.215
4.067,-0.21
4.069,-0.235
4.072,-0.24
4.075,-0.255
4.078,-0.245
4.081,-0.235
4.083,-0.23
4.086,-0.235
4.089,-0.245
4.092,-0.27
4.094,-0.26
4.097,-0.25
4.1,-0.24
4.103,-0.24
4.106,-0.255
4.108,-0.26
4.111,-0.265
4.114,-0.255
4.117,-0.245
4.119,-0.245
4.122,-0.26
4.125,-0.255
4.128,-0.26
4.131,-0.255
4.133,-0.24
4.136,-0.24
4.139,-0.26
4.142,-0.26
4.144,-0.25
4.147,-0.24
4.15,-0.235
4.153,-0.24
4.156,-0.255
4.158,-0.27
4.161,-0.285
4.164,-0.29
4.167,-0.31
4.169,-0.33
4.172,-0.365
4.175,-0.37
4.178,-0.35
4.181,-0.26
4.183,-0.135
4.186,-0.02
4.189,0.035
4.192,0.095
4.194,0.185
4.197,0.315
4.2,0.45
4.203,0.515
4.206,0.45
4.208,0.175
4.211,-0.18
4.214,-0.385
4.217,-0.395
4.219,-0.345
4.222,-0.31
4.225,-0.29
4.228,-0.275
4.231,-0.265
4.233,-0.235
4.236,-0.25
4.239,-0.265
4.242,-0.255
4.244,-0.245
4.247,-0.24
4.25,-0.24
4.253,-0.25
4.256,-0.26
4.258,-0.265
4.261,-0.275
4.264,-0.255
4.267,-0.24
4.269,-0.245
4.272,-0.26
4.275,-0.26
4.278,-0.265
4.281,-0.25
4.283,-0.25
4.286,-0.245
4.289,-0.25
4.292,-0.265
4.294,-0.255
4.297,-0.25
4.3,-0.245
4.303,-0.245
4.306,-0.255
4.308,-0.26
4.311,-0.25
4.314,-0.24
4.317,-0.215
4.319,-0.23
4.322,-0.25
4.325,-0.25
4.328,-0.255
4.331,-0.24
4.333,-0.22
4.336,-0.235
4.339,-0.235
4.342,-0.24
4.344,-0.255
4.347,-0.245
4.35,-0.225
4.353,-0.23
4.356,-0.235
4.358,-0.24
4.361,-0.24
4.364,-0.24
4.367,-0.23
4.369,-0.245
4.372,-0.255
4.375,-0.25
4.378,-0.25
4.381,-0.235
4.383,-0.24
4.386,-0.235
4.389,-0.255
4.392,-0.255
4.394,-0.255
4.397,-0.25
4.4,-0.235
4.403,-0.26
4.406,-0.255
4.408,-0.27
4.411,-0.285
4.414,-0.285
4.417,-0.28
4.419,-0.285
4.422,-0.285
4.425,-0.305
4.428,-0.295
4.431,-0.285
4.433,-0.29
4.436,-0.305
4.439,-0.32
4.442,-0.335
4.444,-0.34
4.447,-0.315
4.45,-0.315
4.453,-0.33
4.456,-0.345
4.458,-0.35
4.461,-0.355
4.464,-0.365
4.467,-0.355
4.469,-0.365
4.472,-0.37
4.475,-0.375
4.478,-0.375
4.481,-0.37
4.483,-0.355
4.486,-0.36
4.489,-0.34
4.492,-0.34
4.494,-0.33
4.497,-0.315
4.5,-0.29
4.503,-0.275
4.506,-0.265
4.508,-0.26
4.511,-0.245
4.514,-0.225
4.517,-0.205
4.519,-0.2
4.522,-0.19
4.525,-0.2
4.528,-0.185
4.531,-0.175
4.533,-0.16
4.536,-0.155
4.539,-0.165
4.542,-0.16
4.544,-0.17
4.547,-0.15
4.55,-0.145
4.553,-0.15
4.556,-0.145
4.558,-0.145
4.561,-0.155
4.564,-0.15
4.567,-0.135
4.569,-0.145
4.572,-0.145
4.575,-0.15
4.578,-0.145
4.581,-0.14
4.583,-0.13
4.586,-0.135
4.589,-0.14
4.592,-0.145
4.594,-0.165
4.597,-0.155
4.6,-0.145
4.603,-0.15
4.606,-0.16
4.608,-0.16
4.611,-0.16
4.614,-0.145
4.617,-0.14
4.619,-0.15
4.622,-0.165
4.625,-0.17
4.628,-0.165
4.631,-0.165
4.633,-0.15
4.636,-0.15
4.639,-0.165
4.642,-0.17
4.644,-0.18
4.647,-0.165
4.65,-0.155
4.653,-0.16
4.656,-0.165
4.658,-0.175
4.661,-0.18
4.664,-0.165
4.667,-0.15
4.669,-0.17
4.672,-0.17
4.675,-0.185
4.678,-0.175
4.681,-0.175
4.683,-0.16
4.686,-0.165
4.689,-0.17
4.692,-0.18
4.694,-0.175
4.697,-0.17
4.7,-0.16
4.703,-0.16
4.706,-0.17
4.708,-0.19
4.711,-0.165
4.714,-0.16
4.717,-0.155
4.719,-0.16
4.722,-0.155
4.725,-0.165
4.728,-0.185
4.731,-0.175
4.733,-0.15
4.736,-0.155
4.739,-0.165
4.742,-0.17
4.744,-0.17
4.747,-0.165
4.75,-0.15
4.753,-0.16
4.756,-0.17
4.758,-0.175
4.761,-0.18
4.764,-0.155
4.767,-0.15
4.769,-0.145
4.772,-0.16
4.775,-0.165
4.778,-0.16
4.781,-0.16
4.783,-0.145
4.786,-0.15
4.789,-0.15
4.792,-0.16
4.794,-0.16
4.797,-0.15
4.8,-0.15
4.803,-0.15
4.806,-0.155
4.808,-0.16
4.811,-0.16
4.814,-0.15
4.817,-0.13
4.819,-0.15
4.822,-0.155
4.825,-0.16
4.828,-0.15
4.831,-0.125
4.833,-0.12
4.836,-0.115
4.839,-0.125
4.842,-0.135
4.844,-0.14
4.847,-0.13
4.85,-0.105
4.853,-0.105
4.856,-0.1
4.858,-0.105
4.861,-0.09
4.864,-0.08
4.867,-0.075
4.869,-0.09
4.872,-0.09
4.875,-0.1
4.878,-0.1
4.881,-0.095
4.883,-0.09
4.886,-0.11
4.889,-0.125
4.892,-0.13
4.894,-0.12
4.897,-0.12
4.9,-0.11
4.903,-0.11
4.906,-0.12
4.908,-0.13
4.911,-0.14
4.914,-0.145
4.917,-0.125
4.919,-0.13
4.922,-0.15
4.925,-0.145
4.928,-0.14
4.931,-0.14
4.933,-0.12
4.936,-0.135
4.939,-0.145
4.942,-0.16
4.944,-0.15
4.947,-0.135
4.95,-0.125
4.953,-0.135
4.956,-0.145
4.958,-0.15
4.961,-0.16
4.964,-0.145
4.967,-0.135
4.969,-0.135
4.972,-0.125
4.975,-0.16
4.978,-0.175
4.981,-0.195
4.983,-0.21
4.986,-0.23
4.989,-0.27
4.992,-0.29
4.994,-0.28
4.997,-0.195
5,-0.05
5.003,0.085
5.006,0.195
5.008,0.305
5.011,0.42
5.014,0.565
5.017,0.705
5.019,0.8
5.022,0.795
5.025,0.595
5.028,0.235
5.031,-0.075
5.033,-0.19
5.036,-0.185
5.039,-0.155
5.042,-0.17
5.044,-0.165
5.047,-0.155
5.05,-0.145
5.053,-0.155
5.056,-0.19
5.058,-0.2
5.061,-0.195
5.064,-0.175
5.067,-0.175
5.069,-0.18
5.072,-0.185
5.075,-0.2
5.078,-0.195
5.081,-0.2
5.083,-0.195
5.086,-0.19
5.089,-0.195
5.092,-0.2
5.094,-0.2
5.097,-0.19
5.1,-0.18
5.103,-0.185
5.106,-0.195
5.108,-0.21
5.111,-0.21
5.114,-0.175
5.117,-0.19
5.119,-0.185
5.122,-0.185
5.125,-0.195
5.128,-0.2
5.131,-0.195
5.133,-0.18
5.136,-0.19
5.139,-0.195
5.142,-0.19
5.144,-0.195
5.147,-0.175
5.15,-0.175
5.153,-0.185
5.156,-0.19
5.158,-0.195
5.161,-0.19
5.164,-0.185
5.167,-0.17
5.169,-0.17
5.172,-0.19
5.175,-0.2
5.178,-0.2
5.181,-0.18
5.183,-0.175
5.186,-0.195
5.189,-0.175
5.192,-0.19
5.194,-0.19
5.197,-0.19
5.2,-0.18
5.203,-0.19
5.206,-0.21
5.208,-0.205
5.211,-0.2
5.214,-0.21
5.217,-0.195
5.219,-0.205
5.222,-0.215
5.225,-0.23
5.228,-0.215
5.231,-0.225
5.233,-0.205
5.236,-0.215
5.239,-0.235
5.242,-0.245
5.244,-0.245
5.247,-0.24
5.25,-0.245
5.253,-0.235
5.256,-0.26
5.258,-0.265
5.261,-0.27
5.264,-0.265
5.267,-0.265
5.269,-0.27
5.272,-0.285
5.275,-0.3
5.278,-0.295
5.281,-0.295
5.283,-0.295
5.286,-0.305
5.289,-0.31
5.292,-0.32
5.294,-0.325
5.297,-0.32
5.3,-0.31
5.303,-0.32
5.306,-0.32
5.308,-0.325
5.311,-0.31
5.314,-0.28
5.317,-0.28
5.319,-0.28
5.322,-0.265
5.325,-0.265
5.328,-0.25
5.331,-0.225
5.333,-0.2
5.336,-0.195
5.339,-0.19
5.342,-0.18
5.344,-0.17
5.347,-0.15
5.35,-0.135
5.353,-0.115
5.356,-0.125
5.358,-0.13
5.361,-0.12
5.364,-0.105
5.367,-0.1
5.369,-0.1
5.372,-0.1
5.375,-0.115
5.378,-0.12
5.381,-0.105
5.383,-0.1
5.386,-0.105
5.389,-0.115
5.392,-0.12
5.394,-0.11
5.397,-0.105
5.4,-0.095
5.403,-0.1
5.406,-0.11
5.408,-0.12
5.411,-0.12
5.414,-0.115
5.417,-0.105
5.419,-0.105
5.422,-0.095
5.425,-0.105
5.428,-0.12
5.431,-0.115
5.433,-0.105
5.436,-0.11
5.439,-0.125
5.442,-0.115
5.444,-0.13
5.447,-0.115
5.45,-0.095
5.453,-0.1
5.456,-0.11
5.458,-0.115
5.461,-0.115
5.464,-0.105
5.467,-0.1
5.469,-0.11
5.472,-0.1
5.475,-0.1
5.478,-0.105
5.481,-0.095
5.483,-0.095
5.486,-0.095
5.489,-0.11
5.492,-0.115
5.494,-0.11
5.497,-0.105
5.5,-0.105
5.503,-0.115
5.506,-0.115
5.508,-0.135
5.511,-0.125
5.514,-0.135
5.517,-0.125
5.519,-0.13
5.522,-0.15
5.525,-0.155
5.528,-0.165
5.531,-0.165
5.533,-0.17
5.536,-0.175
5.539,-0.17
5.542,-0.175
5.544,-0.17
5.547,-0.165
5.55,-0.16
5.553,-0.16
5.556,-0.17
5.558,-0.18
5.561,-0.17
5.564,-0.155
5.567,-0.155
5.569,-0.16
5.572,-0.16
5.575,-0.175
5.578,-0.17
5.581,-0.155
5.583,-0.15
5.586,-0.16
5.589,-0.155
5.592,-0.165
5.594,-0.16
5.597,-0.15
5.6,-0.15
5.603,-0.145
5.606,-0.155
5.608,-0.165
5.611,-0.155
5.614,-0.135
5.617,-0.13
5.619,-0.145
5.622,-0.155
5.625,-0.16
5.628,-0.16
5.631,-0.175
5.633,-0.19
5.636,-0.235
5.639,-0.25
5.642,-0.295
5.644,-0.315
5.647,-0.295
5.65,-0.19
5.653,-0.085
5.656,0.06
5.658,0.175
5.661,0.265
5.664,0.38
5.667,0.485
5.669,0.59
5.672,0.665
5.675,0.665
5.678,0.5
5.681,0.205
5.683,-0.075
5.686,-0.215
5.689,-0.205
5.692,-0.18
5.694,-0.175
5.697,-0.165
5.7,-0.145
5.703,-0.145
5.706,-0.16
5.708,-0.165
5.711,-0.17
5.714,-0.155
5.717,-0.155
5.719,-0.155
5.722,-0.17
5.725,-0.175
5.728,-0.17
5.731,-0.155
5.733,-0.155
5.736,-0.16
5.739,-0.165
5.742,-0.18
5.744,-0.175
5.747,-0.17
5.75,-0.16
5.753,-0.16
5.756,-0.17
5.758,-0.18
5.761,-0.18
5.764,-0.17
5.767,-0.165
5.769,-0.165
5.772,-0.175
5.775,-0.18
5.778,-0.185
5.781,-0.17
5.783,-0.16
5.786,-0.165
5.789,-0.175
5.792,-0.175
5.794,-0.175
5.797,-0.18
5.8,-0.17
5.803,-0.16
5.806,-0.17
5.808,-0.18
5.811,-0.185
5.814,-0.17
5.817,-0.16
5.819,-0.18
5.822,-0.18
5.825,-0.185
5.828,-0.185
5.831,-0.165
5.833,-0.155
5.836,-0.17
5.839,-0.175
5.842,-0.195
5.844,-0.195
5.847,-0.19
5.85,-0.175
5.853,-0.175
5.856,-0.19
5.858,-0.19
5.861,-0.19
5.864,-0.185
5.867,-0.19
5.869,-0.215
5.872,-0.22
5.875,-0.215
5.878,-0.225
5.881,-0.215
5.883,-0.2
5.886,-0.23
5.889,-0.225
5.892,-0.245
5.894,-0.24
5.897,-0.245
5.9,-0.22
5.903,-0.245
5.906,-0.26
5.908,-0.28
5.911,-0.28
5.914,-0.285
5.917,-0.27
5.919,-0.285
5.922,-0.295
5.925,-0.305
5.928,-0.305
5.931,-0.315
5.933,-0.305
5.936,-0.31
5.939,-0.33
5.942,-0.325
5.944,-0.33
5.947,-0.315
5.95,-0.31
5.953,-0.315
5.956,-0.31
5.958,-0.32
5.961,-0.305
5.964,-0.29
5.967,-0.275
5.969,-0.27
5.972,-0.265
5.975,-0.265
5.978,-0.255
5.981,-0.245
5.983,-0.225
5.986,-0.215
5.989,-0.215
5.992,-0.215
5.994,-0.21
5.997,-0.205
6,-0.185
6.003,-0.18
6.006,-0.19
6.008,-0.19
6.011,-0.17
6.014,-0.155
6.017,-0.14
6.019,-0.145
6.022,-0.165
6.025,-0.16
6.028,-0.16
6.031,-0.15
6.033,-0.145
6.036,-0.14
6.039,-0.15
6.042,-0.15
6.044,-0.17
6.047,-0.155
6.05,-0.145
6.053,-0.13
6.056,-0.14
6.058,-0.15
6.061,-0.145
6.064,-0.15
6.067,-0.135
6.069,-0.14
6.072,-0.155
6.075,-0.15
6.078,-0.165
6.081,-0.145
6.083,-0.145
6.086,-0.155
6.089,-0.16
6.092,-0.16
6.094,-0.175
6.097,-0.155
6.1,-0.155
6.103,-0.15
6.106,-0.16
6.108,-0.165
6.111,-0.165
6.114,-0.175
6.117,-0.165
6.119,-0.165
6.122,-0.165
6.125,-0.17
6.128,-0.165
6.131,-0.16
6.133,-0.16
6.136,-0.165
6.139,-0.17
6.142,-0.195
6.144,-0.185
6.147,-0.18
6.15,-0.17
6.153,-0.165
6.156,-0.185
6.158,-0.18
6.161,-0.185
6.164,-0.17
6.167,-0.175
6.169,-0.175
6.172,-0.175
6.175,-0.18
6.178,-0.175
6.181,-0.155
6.183,-0.16
6.186,-0.17
6.189,-0.18
6.192,-0.2
6.194,-0.195
6.197,-0.165
6.2,-0.16
6.203,-0.16
6.206,-0.165
6.208,-0.185
6.211,-0.19
6.214,-0.18
6.217,-0.17
6.219,-0.17
6.222,-0.17
6.225,-0.18
6.228,-0.18
6.231,-0.17
6.233,-0.18
6.236,-0.18
6.239,-0.2
6.242,-0.195
6.244,-0.195
6.247,-0.155
6.25,-0.145
6.253,-0.165
6.256,-0.18
6.258,-0.185
6.261,-0.18
6.264,-0.17
6.267,-0.16
6.269,-0.16
6.272,-0.17
6.275,-0.18
6.278,-0.19
6.281,-0.18
6.283,-0.165
6.286,-0.17
6.289,-0.185
6.292,-0.195
6.294,-0.185
6.297,-0.185
6.3,-0.185
6.303,-0.185
6.306,-0.19
6.308,-0.18
6.311,-0.19
6.314,-0.19
6.317,-0.18
6.319,-0.19
6.322,-0.19
6.325,-0.195
6.328,-0.195
6.331,-0.185
6.333,-0.175
6.336,-0.195
6.339,-0.18
6.342,-0.18
6.344,-0.185
6.347,-0.19
6.35,-0.175
6.353,-0.19
6.356,-0.19
6.358,-0.21
6.361,-0.205
6.364,-0.185
6.367,-0.18
6.369,-0.18
6.372,-0.19
6.375,-0.215
6.378,-0.22
6.381,-0.205
6.383,-0.195
6.386,-0.19
6.389,-0.195
6.392,-0.215
6.394,-0.235
6.397,-0.21
6.4,-0.2
6.403,-0.21
6.406,-0.205
6.408,-0.215
6.411,-0.215
6.414,-0.205
6.417,-0.2
6.419,-0.19
6.422,-0.22
6.425,-0.225
6.428,-0.225
6.431,-0.205
6.433,-0.2
6.436,-0.205
6.439,-0.205
6.442,-0.21
6.444,-0.21
6.447,-0.195
6.45,-0.195
6.453,-0.195
6.456,-0.2
6.458,-0.225
6.461,-0.225
6.464,-0.205
6.467,-0.19
6.469,-0.195
6.472,-0.19
6.475,-0.2
6.478,-0.185
6.481,-0.18
6.483,-0.165
6.486,-0.17
6.489,-0.18
6.492,-0.175
6.494,-0.17
6.497,-0.165
6.5,-0.15
6.503,-0.155
6.506,-0.165
6.508,-0.17
6.511,-0.165
6.514,-0.165
6.517,-0.155
6.519,-0.17
6.522,-0.18
6.525,-0.17
6.528,-0.165
6.531,-0.16
6.533,-0.16
6.536,-0.18
6.539,-0.19
6.542,-0.205
6.544,-0.19
6.547,-0.19
6.55,-0.17
6.553,-0.185
6.556,-0.19
6.558,-0.195
6.561,-0.225
6.564,-0.215
6.567,-0.2
6.569,-0.205
6.572,-0.205
6.575,-0.205
6.578,-0.22
6.581,-0.21
6.583,-0.21
6.586,-0.21
6.589,-0.215
6.592,-0.225
6.594,-0.235
6.597,-0.23
6.6,-0.205
6.603,-0.215
6.606,-0.225
6.608,-0.225
6.611,-0.22
6.614,-0.22
6.617,-0.215
6.619,-0.225
6.622,-0.225
6.625,-0.255
6.628,-0.275
6.631,-0.29
6.633,-0.29
6.636,-0.315
6.639,-0.33
6.642,-0.305
6.644,-0.245
6.647,-0.115
6.65,-0.025
6.653,0.03
6.656,0.08
6.658,0.155
6.661,0.265
6.664,0.385
6.667,0.5
6.669,0.545
6.672,0.45
6.675,0.215
6.678,-0.09
6.681,-0.325
6.683,-0.39
6.686,-0.385
6.689,-0.365
6.692,-0.335
6.694,-0.295
6.697,-0.285
6.7,-0.27
6.703,-0.265
6.706,-0.27
6.708,-0.275
6.711,-0.285
6.714,-0.265
6.717,-0.25
6.719,-0.26
6.722,-0.26
6.725,-0.265
6.728,-0.27
6.731,-0.265
6.733,-0.245
6.736,-0.26
6.739,-0.255
6.742,-0.28
6.744,-0.26
6.747,-0.25
6.75,-0.25
6.753,-0.255
6.756,-0.255
6.758,-0.26
6.761,-0.26
6.764,-0.255
6.767,-0.225
6.769,-0.24
6.772,-0.245
6.775,-0.265
6.778,-0.275
6.781,-0.25
6.783,-0.245
6.786,-0.23
6.789,-0.24
6.792,-0.255
6.794,-0.25
6.797,-0.25
6.8,-0.245
6.803,-0.235
6.806,-0.24
6.808,-0.25
6.811,-0.25
6.814,-0.245
6.817,-0.22
6.819,-0.245
6.822,-0.245
6.825,-0.24
6.828,-0.255
6.831,-0.245
6.833,-0.225
6.836,-0.24
6.839,-0.25
6.842,-0.26
6.844,-0.265
6.847,-0.255
6.85,-0.24
6.853,-0.25
6.856,-0.25
6.858,-0.265
6.861,-0.26
6.864,-0.26
6.867,-0.265
6.869,-0.275
6.872,-0.27
6.875,-0.27
6.878,-0.27
6.881,-0.27
6.883,-0.245
6.886,-0.265
6.889,-0.265
6.892,-0.27
6.894,-0.285
6.897,-0.26
6.9,-0.245
6.903,-0.255
6.906,-0.265
6.908,-0.285
6.911,-0.295
6.914,-0.3
6.917,-0.295
6.919,-0.285
6.922,-0.32
6.925,-0.325
6.928,-0.335
6.931,-0.335
6.933,-0.33
6.936,-0.35
6.939,-0.345
6.942,-0.365
6.944,-0.38
6.947,-0.375
6.95,-0.375
6.953,-0.385
6.956,-0.385
6.958,-0.4
6.961,-0.4
6.964,-0.395
6.967,-0.39
6.969,-0.39
6.972,-0.4
6.975,-0.405
6.978,-0.41
6.981,-0.38
6.983,-0.355
6.986,-0.35
6.989,-0.34
6.992,-0.345
6.994,-0.335
6.997,-0.31
7,-0.285
7.003,-0.28
7.006,-0.27
7.008,-0.255
7.011,-0.245
7.014,-0.235
7.017,-0.21
7.019,-0.215
7.022,-0.22
7.025,-0.22
7.028,-0.215
7.031,-0.19
7.033,-0.18
7.036,-0.18
7.039,-0.185
7.042,-0.195
7.044,-0.195
7.047,-0.19
7.05,-0.17
7.053,-0.17
7.056,-0.185
7.058,-0.185
7.061,-0.185
7.064,-0.18
7.067,-0.17
7.069,-0.19
7.072,-0.18
7.075,-0.195
7.078,-0.19
7.081,-0.17
7.083,-0.17
7.086,-0.175
7.089,-0.19
7.092,-0.195
7.094,-0.19
7.097,-0.185
7.1,-0.185
7.103,-0.18
7.106,-0.185
7.108,-0.19
7.111,-0.205
7.114,-0.195
7.117,-0.185
7.119,-0.185
7.122,-0.185
7.125,-0.205
7.128,-0.205
7.131,-0.18
7.133,-0.195
7.136,-0.195
7.139,-0.205
7.142,-0.21
7.144,-0.225
7.147,-0.21
7.15,-0.2
7.153,-0.2
7.156,-0.205
7.158,-0.21
7.161,-0.225
7.164,-0.21
7.167,-0.2
7.169,-0.2
7.172,-0.205
7.175,-0.21
7.178,-0.2
7.181,-0.195
7.183,-0.185
7.186,-0.205
7.189,-0.21
7.192,-0.22
7.194,-0.215
7.197,-0.205
7.2,-0.2
7.203,-0.215
7.206,-0.21
7.208,-0.225
7.211,-0.22
7.214,-0.215
7.217,-0.2
7.219,-0.21
7.222,-0.205
7.225,-0.215
7.228,-0.215
7.231,-0.215
7.233,-0.2
7.236,-0.2
7.239,-0.21
7.242,-0.22
7.244,-0.21
7.247,-0.195
7.25,-0.2
7.253,-0.19
7.256,-0.21
7.258,-0.22
7.261,-0.215
7.264,-0.2
7.267,-0.185
7.269,-0.195
7.272,-0.2
7.275,-0.2
7.278,-0.205
7.281,-0.195
7.283,-0.185
7.286,-0.19
7.289,-0.195
7.292,-0.2
7.294,-0.2
7.297,-0.2
7.3,-0.19
7.303,-0.2
7.306,-0.19
7.308,-0.2
7.311,-0.195
7.314,-0.18
7.317,-0.16
7.319,-0.18
7.322,-0.18
7.325,-0.185
7.328,-0.18
7.331,-0.16
7.333,-0.145
7.336,-0.155
7.339,-0.17
7.342,-0.17
7.344,-0.155
7.347,-0.145
7.35,-0.13
7.353,-0.135
7.356,-0.14
7.358,-0.135
7.361,-0.14
7.364,-0.14
7.367,-0.125
7.369,-0.13
7.372,-0.15
7.375,-0.165
7.378,-0.165
7.381,-0.165
7.383,-0.155
7.386,-0.15
7.389,-0.165
7.392,-0.18
7.394,-0.195
7.397,-0.175
7.4,-0.17
7.403,-0.175
7.406,-0.185
7.408,-0.195
7.411,-0.19
7.414,-0.175
7.417,-0.185
7.419,-0.19
7.422,-0.205
7.425,-0.215
7.428,-0.215
7.431,-0.195
7.433,-0.18
7.436,-0.19
7.439,-0.2
7.442,-0.2
7.444,-0.215
7.447,-0.2
7.45,-0.18
7.453,-0.195
7.456,-0.2
7.458,-0.205
7.461,-0.21
7.464,-0.2
7.467,-0.205
7.469,-0.235
7.472,-0.26
7.475,-0.285
7.478,-0.3
7.481,-0.325
7.483,-0.32
7.486,-0.29
7.489,-0.19
7.492,-0.055
7.494,0.05
7.497,0.15
7.5,0.245
7.503,0.345
7.506,0.445
7.508,0.53
7.511,0.595
7.514,0.52
7.517,0.275
7.519,-0.085
7.522,-0.3
7.525,-0.335
7.528,-0.285
7.531,-0.25
7.533,-0.245
7.536,-0.235
7.539,-0.215
7.542,-0.23
7.544,-0.23
7.547,-0.24
7.55,-0.235
7.553,-0.235
7.556,-0.245
7.558,-0.255
7.561,-0.25
7.564,-0.24
7.567,-0.225
7.569,-0.23
7.572,-0.25
7.575,-0.24
7.578,-0.255
7.581,-0.23
7.583,-0.225
7.586,-0.225
7.589,-0.225
7.592,-0.23
7.594,-0.24
7.597,-0.225
7.6,-0.215
7.603,-0.215
7.606,-0.225
7.608,-0.235
7.611,-0.24
7.614,-0.225
7.617,-0.205
7.619,-0.21
7.622,-0.225
7.625,-0.23
7.628,-0.235
7.631,-0.225
7.633,-0.215
7.636,-0.22
7.639,-0.23
7.642,-0.235
7.644,-0.23
7.647,-0.215
7.65,-0.215
7.653,-0.215
7.656,-0.225
7.658,-0.235
7.661,-0.235
7.664,-0.23
7.667,-0.215
7.669,-0.225
7.672,-0.225
7.675,-0.235
7.678,-0.245
7.681,-0.24
7.683,-0.225
7.686,-0.21
7.689,-0.23
7.692,-0.23
7.694,-0.245
7.697,-0.22
7.7,-0.225
7.703,-0.235
7.706,-0.245
7.708,-0.25
7.711,-0.25
7.714,-0.24
7.717,-0.24
7.719,-0.245
7.722,-0.25
7.725,-0.27
7.728,-0.27
7.731,-0.265
7.733,-0.26
7.736,-0.28
7.739,-0.295
7.742,-0.295
7.744,-0.315
7.747,-0.31
7.75,-0.305
7.753,-0.31
7.756,-0.325
7.758,-0.33
7.761,-0.35
7.764,-0.34
7.767,-0.335
7.769,-0.35
7.772,-0.35
7.775,-0.37
7.778,-0.365
7.781,-0.355
7.783,-0.335
7.786,-0.355
7.789,-0.365
7.792,-0.37
7.794,-0.36
7.797,-0.335
7.8,-0.315
7.803,-0.315
7.806,-0.305
7.808,-0.285
7.811,-0.285
7.814,-0.27
7.817,-0.24
7.819,-0.23
7.822,-0.22
7.825,-0.22
7.828,-0.2
7.831,-0.18
7.833,-0.175
7.836,-0.18
7.839,-0.185
7.842,-0.19
7.844,-0.185
7.847,-0.18
7.85,-0.175
7.853,-0.17
7.856,-0.165
7.858,-0.175
7.861,-0.17
7.864,-0.165
7.867,-0.155
7.869,-0.16
7.872,-0.16
7.875,-0.165
7.878,-0.165
7.881,-0.16
7.883,-0.145
7.886,-0.15
7.889,-0.16
7.892,-0.165
7.894,-0.175
7.897,-0.15
7.9,-0.14
7.903,-0.155
7.906,-0.16
7.908,-0.175
7.911,-0.175
7.914,-0.17
7.917,-0.16
7.919,-0.155
7.922,-0.165
7.925,-0.175
7.928,-0.18
7.931,-0.17
7.933,-0.165
7.936,-0.17
7.939,-0.185
7.942,-0.185
7.944,-0.18
7.947,-0.175
7.95,-0.17
7.953,-0.18
7.956,-0.185
7.958,-0.2
7.961,-0.195
7.964,-0.185
7.967,-0.175
7.969,-0.18
7.972,-0.185
7.975,-0.205
7.978,-0.21
7.981,-0.19
7.983,-0.185
7.986,-0.19
7.989,-0.2
7.992,-0.205
7.994,-0.215
7.997,-0.2
8,-0.18
8.003,-0.185
8.006,-0.2
8.008,-0.205
8.011,-0.2
8.014,-0.205
8.017,-0.19
8.019,-0.19
8.022,-0.18
8.025,-0.205
8.028,-0.2
8.031,-0.195
8.033,-0.18
8.036,-0.185
8.039,-0.185
8.042,-0.2
8.044,-0.2
8.047,-0.18
8.05,-0.18
8.053,-0.185
8.056,-0.185
8.058,-0.2
8.061,-0.195
8.064,-0.175
8.067,-0.175
8.069,-0.185
8.072,-0.19
8.075,-0.195
8.078,-0.205
8.081,-0.185
8.083,-0.16
8.086,-0.17
8.089,-0.19
8.092,-0.19
8.094,-0.19
8.097,-0.18
8.1,-0.17
8.103,-0.16
8.106,-0.17
8.108,-0.185
8.111,-0.195
8.114,-0.18
8.117,-0.175
8.119,-0.17
8.122,-0.17
8.125,-0.195
8.128,-0.2
8.131,-0.18
8.133,-0.17
8.136,-0.175
8.139,-0.18
8.142,-0.18
8.144,-0.17
8.147,-0.155
8.15,-0.135
8.153,-0.145
8.156,-0.16
8.158,-0.16
8.161,-0.16
8.164,-0.14
8.167,-0.12
8.169,-0.12
8.172,-0.13
8.175,-0.13
8.178,-0.125
8.181,-0.125
8.183,-0.115
8.186,-0.11
8.189,-0.13
8.192,-0.145
8.194,-0.155
8.197,-0.14
8.2,-0.14
8.203,-0.145
8.206,-0.15
8.208,-0.16
8.211,-0.165
8.214,-0.16
8.217,-0.15
8.219,-0.165
8.222,-0.185
8.225,-0.18
8.228,-0.185
8.231,-0.17
8.233,-0.155
8.236,-0.175
8.239,-0.19
8.242,-0.195
8.244,-0.195
8.247,-0.18
8.25,-0.175
8.253,-0.18
8.256,-0.18
8.258,-0.19
8.261,-0.17
8.264,-0.18
8.267,-0.175
8.269,-0.18
8.272,-0.185
8.275,-0.2
8.278,-0.195
8.281,-0.2
8.283,-0.225
8.286,-0.255
8.289,-0.295
8.292,-0.33
8.294,-0.34
8.297,-0.305
8.3,-0.195
8.303,-0.065
8.306,0.07
8.308,0.18
8.311,0.285
8.314,0.415
8.317,0.555
8.319,0.67
8.322,0.7
8.325,0.555
8.328,0.21
8.331,-0.125
8.333,-0.265
8.336,-0.24
8.339,-0.215
8.342,-0.215
8.344,-0.23
8.347,-0.22
8.35,-0.21
8.353,-0.235
8.356,-0.235
8.358,-0.235
8.361,-0.23
8.364,-0.225
8.367,-0.21
8.369,-0.215
8.372,-0.225
8.375,-0.24
8.378,-0.25
8.381,-0.23
8.383,-0.23
8.386,-0.225
8.389,-0.23
8.392,-0.24
8.394,-0.235
8.397,-0.23
8.4,-0.225
8.403,-0.23
8.406,-0.245
8.408,-0.235
8.411,-0.235
8.414,-0.22
8.417,-0.22
8.419,-0.225
8.422,-0.23
8.425,-0.245
8.428,-0.225
8.431,-0.22
8.433,-0.21
8.436,-0.21
8.439,-0.22
8.442,-0.24
8.444,-0.235
8.447,-0.225
8.45,-0.21
8.453,-0.2
8.456,-0.225
8.458,-0.225
8.461,-0.225
8.464,-0.225
8.467,-0.215
8.469,-0.215
8.472,-0.235
8.475,-0.24
8.478,-0.24
8.481,-0.235
8.483,-0.22
8.486,-0.225
8.489,-0.235
8.492,-0.245
8.494,-0.245
8.497,-0.23
8.5,-0.225
8.503,-0.22
8.506,-0.245
8.508,-0.25
8.511,-0.255
8.514,-0.255
8.517,-0.24
8.519,-0.25
8.522,-0.26
8.525,-0.275
8.528,-0.285
8.531,-0.275
8.533,-0.28
8.536,-0.29
8.539,-0.3
8.542,-0.305
8.544,-0.315
8.547,-0.31
8.55,-0.315
8.553,-0.325
8.556,-0.335
8.558,-0.35
8.561,-0.345
8.564,-0.34
8.567,-0.335
8.569,-0.35
8.572,-0.36
8.575,-0.37
8.578,-0.365
8.581,-0.36
8.583,-0.345
8.586,-0.34
8.589,-0.35
8.592,-0.355
8.594,-0.345
8.597,-0.325
8.6,-0.305
8.603,-0.3
8.606,-0.285
8.608,-0.285
8.611,-0.28
8.614,-0.265
8.617,-0.23
8.619,-0.235
8.622,-0.24
8.625,-0.245
8.628,-0.225
8.631,-0.215
8.633,-0.195
8.636,-0.18
8.639,-0.18
8.642,-0.19
8.644,-0.18
8.647,-0.165
8.65,-0.14
8.653,-0.155
8.656,-0.165
8.658,-0.16
8.661,-0.155
8.664,-0.145
8.667,-0.135
8.669,-0.15
8.672,-0.165
8.675,-0.17
8.678,-0.15
8.681,-0.145
8.683,-0.145
8.686,-0.145
8.689,-0.16
8.692,-0.17
8.694,-0.17
8.697,-0.155
8.7,-0.135
8.703,-0.145
8.706,-0.155
8.708,-0.165
8.711,-0.18
8.714,-0.165
8.717,-0.15
8.719,-0.16
8.722,-0.15
8.725,-0.17
8.728,-0.175
8.731,-0.165
8.733,-0.155
8.736,-0.165
8.739,-0.175
8.742,-0.18
8.744,-0.175
8.747,-0.165
8.75,-0.16
8.753,-0.165
8.756,-0.185
8.758,-0.195
8.761,-0.185
8.764,-0.185
8.767,-0.17
8.769,-0.175
8.772,-0.17
8.775,-0.185
8.778,-0.18
8.781,-0.185
8.783,-0.18
8.786,-0.175
8.789,-0.185
8.792,-0.19
8.794,-0.185
8.797,-0.17
8.8,-0.16
8.803,-0.185
8.806,-0.185
8.808,-0.19
8.811,-0.2
8.814,-0.195
8.817,-0.165
8.819,-0.175
8.822,-0.18
8.825,-0.19
8.828,-0.195
8.831,-0.19
8.833,-0.16
8.836,-0.175
8.839,-0.165
8.842,-0.185
8.844,-0.18
8.847,-0.18
8.85,-0.155
8.853,-0.17
8.856,-0.18
8.858,-0.18
8.861,-0.185
8.864,-0.165
8.867,-0.15
8.869,-0.16
8.872,-0.165
8.875,-0.18
8.878,-0.18
8.881,-0.165
8.883,-0.15
8.886,-0.155
8.889,-0.155
8.892,-0.17
8.894,-0.175
8.897,-0.165
8.9,-0.155
8.903,-0.15
8.906,-0.155
8.908,-0.165
8.911,-0.165
8.914,-0.16
8.917,-0.16
8.919,-0.165
8.922,-0.17
8.925,-0.175
8.928,-0.16
8.931,-0.135
8.933,-0.14
8.936,-0.145
8.939,-0.14
8.942,-0.145
8.944,-0.135
8.947,-0.125
8.95,-0.115
8.953,-0.115
8.956,-0.125
8.958,-0.13
8.961,-0.105
8.964,-0.095
8.967,-0.095
8.969,-0.095
8.972,-0.095
8.975,-0.095
8.978,-0.115
8.981,-0.12
8.983,-0.12
8.986,-0.13
8.989,-0.135
8.992,-0.125
8.994,-0.14
8.997,-0.135
9,-0.12
9.003,-0.15
9.006,-0.15
9.008,-0.155
9.011,-0.16
9.014,-0.145
9.017,-0.14
9.019,-0.145
9.022,-0.145
9.025,-0.16
9.028,-0.165
9.031,-0.155
9.033,-0.145
9.036,-0.155
9.039,-0.155
9.042,-0.17
9.044,-0.165
9.047,-0.16
9.05,-0.155
9.053,-0.16
9.056,-0.17
9.058,-0.17
9.061,-0.165
9.064,-0.165
9.067,-0.145
9.069,-0.17
9.072,-0.19
9.075,-0.225
9.078,-0.25
9.081,-0.27
9.083,-0.28
9.086,-0.305
9.089,-0.29
9.092,-0.2
9.094,-0.075
9.097,0.04
9.1,0.135
9.103,0.215
9.106,0.32
9.108,0.435
9.111,0.54
9.114,0.58
9.117,0.465
9.119,0.145
9.122,-0.155
9.125,-0.285
9.128,-0.25
9.131,-0.2
9.133,-0.18
9.136,-0.19
9.139,-0.19
9.142,-0.185
9.144,-0.195
9.147,-0.185
9.15,-0.175
9.153,-0.19
9.156,-0.195
9.158,-0.205
9.161,-0.205
9.164,-0.185
9.167,-0.165
9.169,-0.185
9.172,-0.19
9.175,-0.21
9.178,-0.21
9.181,-0.2
9.183,-0.19
9.186,-0.185
9.189,-0.195
9.192,-0.21
9.194,-0.21
9.197,-0.19
9.2,-0.18
9.203,-0.19
9.206,-0.195
9.208,-0.215
9.211,-0.215
9.214,-0.195
9.217,-0.185
9.219,-0.18
9.222,-0.185
9.225,-0.2
9.228,-0.205
9.231,-0.19
9.233,-0.18
9.236,-0.185
9.239,-0.195
9.242,-0.195
9.244,-0.195
9.247,-0.19
9.25,-0.185
9.253,-0.195
9.256,-0.195
9.258,-0.205
9.261,-0.2
9.264,-0.19
9.267,-0.185
9.269,-0.195
9.272,-0.21
9.275,-0.215
9.278,-0.215
9.281,-0.205
9.283,-0.19
9.286,-0.19
9.289,-0.205
9.292,-0.22
9.294,-0.215
9.297,-0.205
9.3,-0.21
9.303,-0.22
9.306,-0.23
9.308,-0.24
9.311,-0.255
9.314,-0.24
9.317,-0.225
9.319,-0.23
9.322,-0.25
9.325,-0.25
9.328,-0.26
9.331,-0.26
9.333,-0.255
9.336,-0.26
9.339,-0.285
9.342,-0.295
9.344,-0.3
9.347,-0.285
9.35,-0.28
9.353,-0.29
9.356,-0.305
9.358,-0.315
9.361,-0.32
9.364,-0.31
9.367,-0.305
9.369,-0.31
9.372,-0.32
9.375,-0.325
9.378,-0.335
9.381,-0.32
9.383,-0.3
9.386,-0.3
9.389,-0.3
9.392,-0.285
9.394,-0.28
9.397,-0.26
9.4,-0.24
9.403,-0.235
9.406,-0.225
9.408,-0.23
9.411,-0.225
9.414,-0.19
9.417,-0.18
9.419,-0.185
9.422,-0.18
9.425,-0.195
9.428,-0.18
9.431,-0.17
9.433,-0.16
9.436,-0.17
9.439,-0.17
9.442,-0.18
9.444,-0.18
9.447,-0.17
9.45,-0.155
9.453,-0.155
9.456,-0.16
9.458,-0.18
9.461,-0.175
9.464,-0.165
9.467,-0.16
9.469,-0.17
9.472,-0.175
9.475,-0.19
9.478,-0.19
9.481,-0.175
9.483,-0.165
9.486,-0.175
9.489,-0.18
9.492,-0.185
9.494,-0.185
9.497,-0.185
9.5,-0.165
9.503,-0.185
9.506,-0.185
9.508,-0.205
9.511,-0.21
9.514,-0.195
9.517,-0.17
9.519,-0.18
9.522,-0.185
9.525,-0.19
9.528,-0.2
9.531,-0.2
9.533,-0.195
9.536,-0.2
9.539,-0.205
9.542,-0.21
9.544,-0.215
9.547,-0.205
9.55,-0.205
9.553,-0.22
9.556,-0.215
9.558,-0.225
9.561,-0.215
9.564,-0.21
9.567,-0.19
9.569,-0.205
9.572,-0.215
9.575,-0.22
9.578,-0.225
9.581,-0.21
9.583,-0.2
9.586,-0.205
9.589,-0.215
9.592,-0.22
9.594,-0.225
9.597,-0.215
9.6,-0.205
9.603,-0.195
9.606,-0.215
9.608,-0.23
9.611,-0.235
9.614,-0.22
9.617,-0.205
9.619,-0.22
9.622,-0.23
9.625,-0.24
9.628,-0.235
9.631,-0.215
9.633,-0.21
9.636,-0.205
9.639,-0.205
9.642,-0.21
9.644,-0.215
9.647,-0.22
9.65,-0.205
9.653,-0.22
9.656,-0.23
9.658,-0.225
9.661,-0.225
9.664,-0.195
9.667,-0.195
9.669,-0.22
9.672,-0.23
9.675,-0.25
9.678,-0.24
9.681,-0.225
9.683,-0.21
9.686,-0.21
9.689,-0.23
9.692,-0.235
9.694,-0.24
9.697,-0.21
9.7,-0.195
9.703,-0.195
9.706,-0.19
9.708,-0.2
9.711,-0.195
9.714,-0.18
9.717,-0.18
9.719,-0.19
9.722,-0.19
9.725,-0.18
9.728,-0.185
9.731,-0.165
9.733,-0.165
9.736,-0.175
9.739,-0.185
9.742,-0.2
9.744,-0.195
9.747,-0.185
9.75,-0.18
9.753,-0.195
9.756,-0.195
9.758,-0.215
9.761,-0.2
9.764,-0.21
9.767,-0.195
9.769,-0.225
9.772,-0.235
9.775,-0.245
9.778,-0.245
9.781,-0.22
9.783,-0.23
9.786,-0.22
9.789,-0.225
9.792,-0.24
9.794,-0.225
9.797,-0.21
9.8,-0.22
9.803,-0.23
9.806,-0.23
9.808,-0.24
9.811,-0.245
9.814,-0.245
9.817,-0.24
9.819,-0.235
9.822,-0.24
9.825,-0.255
9.828,-0.255
9.831,-0.25
9.833,-0.23
9.836,-0.24
9.839,-0.25
9.842,-0.265
9.844,-0.29
9.847,-0.31
9.85,-0.305
9.853,-0.335
9.856,-0.355
9.858,-0.335
9.861,-0.27
9.864,-0.16
9.867,-0.05
9.869,0.01
9.872,0.065
9.875,0.135
9.878,0.24
9.881,0.355
9.883,0.395
9.886,0.255
9.889,-0.015
9.892,-0.295
9.894,-0.405
9.897,-0.39
9.9,-0.34
9.903,-0.305
9.906,-0.31
9.908,-0.295
9.911,-0.295
9.914,-0.28
9.917,-0.27
9.919,-0.265
9.922,-0.285
9.925,-0.29
9.928,-0.29
9.931,-0.29
9.933,-0.285
9.936,-0.29
9.939,-0.29
9.942,-0.285
9.944,-0.285
9.947,-0.285
9.95,-0.265
9.953,-0.265
9.956,-0.275
9.958,-0.285
9.961,-0.28
9.964,-0.27
9.967,-0.27
9.969,-0.275
9.972,-0.27
9.975,-0.285
9.978,-0.3
9.981,-0.28
9.983,-0.275
9.986,-0.285
9.989,-0.285
9.992,-0.295
9.994,-0.29
9.997,-0.285
10,-0.275
10.003,-0.265
10.006,-0.285
10.008,-0.3
10.011,-0.305
10.014,-0.285
10.017,-0.27
10.019,-0.28
10.022,-0.275
10.025,-0.29
10.028,-0.28
10.031,-0.29
10.033,-0.28
10.036,-0.28
10.039,-0.285
10.042,-0.285
10.044,-0.285
10.047,-0.295
10.05,-0.275
10.053,-0.28
10.056,-0.29
10.058,-0.295
10.061,-0.295
10.064,-0.285
10.067,-0.275
10.069,-0.295
10.072,-0.305
10.075,-0.305
10.078,-0.32
10.081,-0.305
10.083,-0.295
10.086,-0.3
10.089,-0.3
10.092,-0.32
10.094,-0.32
10.097,-0.31
10.1,-0.305
10.103,-0.315
10.106,-0.33
10.108,-0.345
10.111,-0.355
10.114,-0.34
10.117,-0.335
10.119,-0.35
10.122,-0.37
10.125,-0.38
10.128,-0.38
10.131,-0.375
10.133,-0.385
10.136,-0.405
10.139,-0.405
10.142,-0.42
10.144,-0.43
10.147,-0.415
10.15,-0.41
10.153,-0.415
10.156,-0.425
10.158,-0.425
10.161,-0.425
10.164,-0.405
10.167,-0.385
10.169,-0.39
10.172,-0.385
10.175,-0.385
10.178,-0.38
10.181,-0.35
10.183,-0.32
10.186,-0.315
10.189,-0.315
10.192,-0.305
10.194,-0.305
10.197,-0.27
10.2,-0.25
10.203,-0.235
10.206,-0.235
10.208,-0.245
10.211,-0.24
10.214,-0.235
10.217,-0.215
10.219,-0.22
10.222,-0.22
10.225,-0.225
10.228,-0.22
10.231,-0.215
10.233,-0.205
10.236,-0.215
10.239,-0.215
10.242,-0.225
10.244,-0.225
10.247,-0.215
10.25,-0.19
10.253,-0.195
10.256,-0.21
10.258,-0.205
10.261,-0.205
10.264,-0.2
10.267,-0.205
10.269,-0.205
10.272,-0.205
10.275,-0.215
10.278,-0.21
10.281,-0.21
10.283,-0.2
10.286,-0.2
10.289,-0.205
10.292,-0.22
10.294,-0.21
10.297,-0.2
10.3,-0.2
10.303,-0.195
10.306,-0.215
10.308,-0.215
10.311,-0.22
10.314,-0.21
10.317,-0.21
10.319,-0.21
10.322,-0.215
10.325,-0.225
10.328,-0.23
10.331,-0.215
10.333,-0.215
10.336,-0.215
10.339,-0.22
10.342,-0.23
10.344,-0.22
10.347,-0.205
10.35,-0.2
10.353,-0.22
10.356,-0.225
10.358,-0.24
10.361,-0.23
10.364,-0.23
10.367,-0.215
10.369,-0.225
10.372,-0.22
10.375,-0.235
10.378,-0.225
10.381,-0.225
10.383,-0.21
10.386,-0.225
10.389,-0.225
10.392,-0.225
10.394,-0.23
10.397,-0.22
10.4,-0.21
10.403,-0.22
10.406,-0.215
10.408,-0.23
10.411,-0.235
10.414,-0.215
10.417,-0.21
10.419,-0.215
10.422,-0.225
10.425,-0.225
10.428,-0.235
10.431,-0.23
10.433,-0.215
10.436,-0.225
10.439,-0.22
10.442,-0.23
10.444,-0.225
10.447,-0.22
10.45,-0.21
10.453,-0.215
10.456,-0.22
10.458,-0.22
10.461,-0.225
10.464,-0.21
10.467,-0.205
10.469,-0.215
10.472,-0.225
10.475,-0.23
10.478,-0.24
10.481,-0.225
10.483,-0.205
10.486,-0.215
10.489,-0.215
10.492,-0.22
10.494,-0.23
10.497,-0.225
10.5,-0.215
10.503,-0.225
10.506,-0.22
10.508,-0.22
10.511,-0.225
10.514,-0.195
10.517,-0.195
10.519,-0.205
10.522,-0.2
10.525,-0.2
10.528,-0.195
10.531,-0.19
10.533,-0.17
10.536,-0.17
10.539,-0.18
10.542,-0.18
10.544,-0.185
10.547,-0.17
10.55,-0.165
10.553,-0.18
10.556,-0.175
10.558,-0.185
10.561,-0.175
10.564,-0.17
10.567,-0.15
10.569,-0.15
10.572,-0.155
10.575,-0.18
10.578,-0.18
10.581,-0.17
10.583,-0.175
10.586,-0.18
10.589,-0.19
10.592,-0.195
10.594,-0.2
10.597,-0.19
10.6,-0.185
10.603,-0.2
10.606,-0.195
10.608,-0.215
10.611,-0.21
10.614,-0.2
10.617,-0.195
10.619,-0.205
10.622,-0.22
10.625,-0.215
10.628,-0.225
10.631,-0.225
10.633,-0.21
10.636,-0.205
10.639,-0.21
10.642,-0.225
10.644,-0.23
10.647,-0.215
10.65,-0.2
10.653,-0.215
10.656,-0.22
10.658,-0.225
10.661,-0.21
10.664,-0.21
10.667,-0.2
10.669,-0.21
10.672,-0.215
10.675,-0.225
10.678,-0.235
10.681,-0.24
10.683,-0.255
10.686,-0.29
10.689,-0.31
10.692,-0.335
10.694,-0.36
10.697,-0.35
10.7,-0.285
10.703,-0.175
10.706,-0.05
10.708,0.075
10.711,0.19
10.714,0.315
10.717,0.43
10.719,0.545
10.722,0.655
10.725,0.655
10.728,0.505
10.731,0.21
10.733,-0.09
10.736,-0.275
10.739,-0.29
10.742,-0.265
10.744,-0.25
10.747,-0.255
10.75,-0.23
10.753,-0.23
10.756,-0.25
10.758,-0.255
10.761,-0.255
10.764,-0.25
10.767,-0.235
10.769,-0.25
10.772,-0.25
10.775,-0.265
10.778,-0.255
10.781,-0.25
10.783,-0.24
10.786,-0.245
10.789,-0.255
10.792,-0.255
10.794,-0.265
10.797,-0.24
10.8,-0.24
10.803,-0.255
10.806,-0.255
10.808,-0.265
10.811,-0.26
10.814,-0.25
10.817,-0.255
10.819,-0.255
10.822,-0.255
10.825,-0.255
10.828,-0.25
10.831,-0.245
10.833,-0.225
10.836,-0.23
10.839,-0.245
10.842,-0.255
10.844,-0.26
10.847,-0.245
10.85,-0.245
10.853,-0.245
10.856,-0.24
10.858,-0.25
10.861,-0.245
10.864,-0.245
10.867,-0.24
10.869,-0.24
10.872,-0.25
10.875,-0.265
10.878,-0.255
10.881,-0.24
10.883,-0.24
10.886,-0.24
10.889,-0.255
10.892,-0.26
10.894,-0.26
10.897,-0.255
10.9,-0.255
10.903,-0.25
10.906,-0.26
10.908,-0.275
10.911,-0.28
10.914,-0.28
10.917,-0.27
10.919,-0.265
10.922,-0.285
10.925,-0.29
10.928,-0.28
10.931,-0.28
10.933,-0.275
10.936,-0.295
10.939,-0.305
10.942,-0.31
10.944,-0.31
10.947,-0.32
10.95,-0.305
10.953,-0.32
10.956,-0.345
10.958,-0.35
10.961,-0.355
10.964,-0.355
10.967,-0.35
10.969,-0.35
10.972,-0.36
10.975,-0.38
10.978,-0.385
10.981,-0.38
10.983,-0.38
10.986,-0.375
10.989,-0.385
10.992,-0.395
10.994,-0.38
10.997,-0.39
11,-0.38
11.003,-0.385
11.006,-0.38
11.008,-0.375
11.011,-0.37
11.014,-0.335
11.017,-0.315
11.019,-0.31
11.022,-0.3
11.025,-0.31
11.028,-0.285
11.031,-0.26
11.033,-0.225
11.036,-0.225
11.039,-0.22
11.042,-0.23
11.044,-0.215
11.047,-0.205
11.05,-0.195
11.053,-0.185
11.056,-0.195
11.058,-0.19
11.061,-0.18
11.064,-0.17
11.067,-0.15
11.069,-0.16
11.072,-0.175
11.075,-0.185
11.078,-0.175
11.081,-0.17
11.083,-0.16
11.086,-0.165
11.089,-0.165
11.092,-0.18
11.094,-0.175
11.097,-0.17
11.1,-0.165
11.103,-0.17
11.106,-0.18
11.108,-0.185
11.111,-0.19
11.114,-0.17
11.117,-0.155
11.119,-0.16
11.122,-0.165
11.125,-0.175
11.128,-0.18
11.131,-0.17
11.133,-0.165
11.136,-0.165
11.139,-0.175
11.142,-0.185
11.144,-0.19
11.147,-0.19
11.15,-0.175
11.153,-0.19
11.156,-0.18
11.158,-0.195
11.161,-0.195
11.164,-0.18
11.167,-0.18
11.169,-0.19
11.172,-0.205
11.175,-0.215
11.178,-0.215
11.181,-0.21
11.183,-0.19
11.186,-0.185
11.189,-0.2
11.192,-0.205
11.194,-0.225
11.197,-0.205
11.2,-0.2
11.203,-0.205
11.206,-0.205
11.208,-0.215
11.211,-0.215
11.214,-0.2
11.217,-0.2
11.219,-0.21
11.222,-0.21
11.225,-0.23
11.228,-0.215
11.231,-0.22
11.233,-0.205
11.236,-0.205
11.239,-0.22
11.242,-0.235
11.244,-0.225
11.247,-0.22
11.25,-0.21
11.253,-0.215
11.256,-0.22
11.258,-0.23
11.261,-0.22
11.264,-0.22
11.267,-0.215
11.269,-0.21
11.272,-0.235
11.275,-0.225
11.278,-0.22
11.281,-0.22
11.283,-0.2
11.286,-0.22
11.289,-0.215
11.292,-0.235
11.294,-0.23
11.297,-0.225
11.3,-0.21
11.303,-0.215
11.306,-0.22
11.308,-0.225
11.311,-0.215
11.314,-0.21
11.317,-0.2
11.319,-0.21
11.322,-0.22
11.325,-0.225
11.328,-0.225
11.331,-0.225
11.333,-0.21
11.336,-0.205
11.339,-0.21
11.342,-0.23
11.344,-0.225
11.347,-0.215
11.35,-0.21
11.353,-0.21
11.356,-0.225
11.358,-0.225
11.361,-0.225
11.364,-0.205
11.367,-0.2
11.369,-0.21
11.372,-0.22
11.375,-0.21
11.378,-0.215
11.381,-0.19
11.383,-0.19
11.386,-0.185
11.389,-0.185
11.392,-0.185
11.394,-0.2
11.397,-0.185
11.4,-0.17
11.403,-0.17
11.406,-0.155
11.408,-0.16
11.411,-0.16
11.414,-0.175
11.417,-0.165
11.419,-0.16
11.422,-0.16
11.425,-0.165
11.428,-0.17
11.431,-0.165
11.433,-0.16
11.436,-0.175
11.439,-0.195
11.442,-0.2
11.444,-0.205
11.447,-0.195
11.45,-0.195
11.453,-0.205
11.456,-0.2
11.458,-0.22
11.461,-0.225
11.464,-0.22
11.467,-0.21
11.469,-0.215
11.472,-0.22
11.475,-0.23
11.478,-0.24
11.481,-0.215
11.483,-0.215
11.486,-0.225
11.489,-0.235
11.492,-0.24
11.494,-0.25
11.497,-0.23
11.5,-0.205
11.503,-0.225
11.506,-0.23
11.508,-0.24
11.511,-0.25
11.514,-0.23
11.517,-0.215
11.519,-0.23
11.522,-0.255
11.525,-0.28
11.528,-0.305
11.531,-0.315
11.533,-0.325
11.536,-0.33
11.539,-0.35
11.542,-0.375
11.544,-0.415
11.547,-0.415
11.55,-0.375
11.553,-0.32
11.556,-0.235
11.558,-0.125
11.561,0
11.564,0.115
11.567,0.205
11.569,0.315
11.572,0.42
11.575,0.525
11.578,0.61
11.581,0.615
11.583,0.47
11.586,0.135
11.589,-0.165
11.592,-0.325
11.594,-0.305
11.597,-0.27
11.6,-0.26
11.603,-0.26
11.606,-0.25
11.608,-0.27
11.611,-0.275
11.614,-0.26
11.617,-0.26
11.619,-0.275
11.622,-0.27
11.625,-0.27
11.628,-0.27
11.631,-0.265
11.633,-0.26
11.636,-0.27
11.639,-0.27
11.642,-0.28
11.644,-0.285
11.647,-0.265
11.65,-0.255
11.653,-0.26
11.656,-0.27
11.658,-0.275
11.661,-0.285
11.664,-0.27
11.667,-0.265
11.669,-0.265
11.672,-0.26
11.675,-0.275
11.678,-0.27
11.681,-0.265
11.683,-0.255
11.686,-0.26
11.689,-0.255
11.692,-0.275
11.694,-0.265
11.697,-0.26
11.7,-0.255
11.703,-0.255
11.706,-0.26
11.708,-0.265
11.711,-0.28
11.714,-0.26
11.717,-0.24
11.719,-0.25
11.722,-0.265
11.725,-0.27
11.728,-0.28
11.731,-0.265
11.733,-0.25
11.736,-0.255
11.739,-0.26
11.742,-0.27
11.744,-0.28
11.747,-0.275
11.75,-0.26
11.753,-0.27
11.756,-0.285
11.758,-0.28
11.761,-0.28
11.764,-0.275
11.767,-0.28
11.769,-0.275
11.772,-0.27
11.775,-0.295
11.778,-0.305
11.781,-0.295
11.783,-0.28
11.786,-0.3
11.789,-0.31
11.792,-0.31
11.794,-0.315
11.797,-0.315
11.8,-0.31
11.803,-0.315
11.806,-0.33
11.808,-0.35
11.811,-0.35
11.814,-0.355
11.817,-0.335
11.819,-0.345
11.822,-0.355
11.825,-0.37
11.828,-0.375
11.831,-0.385
11.833,-0.38
11.836,-0.39
11.839,-0.39
11.842,-0.405
11.844,-0.41
11.847,-0.395
11.85,-0.395
11.853,-0.395
11.856,-0.4
11.858,-0.41
11.861,-0.405
11.864,-0.385
11.867,-0.375
11.869,-0.365
11.872,-0.365
11.875,-0.365
11.878,-0.355
11.881,-0.325
11.883,-0.295
11.886,-0.295
11.889,-0.265
11.892,-0.28
11.894,-0.275
11.897,-0.245
11.9,-0.23
11.903,-0.215
11.906,-0.21
11.908,-0.225
11.911,-0.215
11.914,-0.21
11.917,-0.195
11.919,-0.19
11.922,-0.215
11.925,-0.195
11.928,-0.21
11.931,-0.18
11.933,-0.18
11.936,-0.19
11.939,-0.195
11.942,-0.2
11.944,-0.2
11.947,-0.19
11.95,-0.17
11.953,-0.18
11.956,-0.195
11.958,-0.195
11.961,-0.21
11.964,-0.2
11.967,-0.195
11.969,-0.185
11.972,-0.19
11.975,-0.215
11.978,-0.21
11.981,-0.21
11.983,-0.2
11.986,-0.205
11.989,-0.215
11.992,-0.215
11.994,-0.225
11.997,-0.215
12,-0.195
12.003,-0.205
12.006,-0.22
12.008,-0.24
12.011,-0.24
12.014,-0.22
12.017,-0.21
12.019,-0.215
12.022,-0.215
12.025,-0.22
12.028,-0.235
12.031,-0.225
12.033,-0.22
12.036,-0.225
12.039,-0.23
12.042,-0.235
12.044,-0.245
12.047,-0.225
12.05,-0.22
12.053,-0.23
12.056,-0.245
12.058,-0.26
12.061,-0.26
12.064,-0.25
12.067,-0.23
12.069,-0.24
12.072,-0.245
12.075,-0.25
12.078,-0.25
12.081,-0.24
12.083,-0.235
12.086,-0.245
12.089,-0.24
12.092,-0.255
12.094,-0.255
12.097,-0.25
12.1,-0.25
12.103,-0.25
12.106,-0.26
12.108,-0.26
12.111,-0.25
12.114,-0.245
12.117,-0.23
12.119,-0.235
12.122,-0.24
12.125,-0.24
12.128,-0.25
12.131,-0.24
12.133,-0.24
12.136,-0.26
12.139,-0.255
12.142,-0.27
12.144,-0.27
12.147,-0.255
12.15,-0.255
12.153,-0.24
12.156,-0.245
12.158,-0.24
12.161,-0.24
12.164,-0.245
12.167,-0.235
12.169,-0.235
12.172,-0.245
12.175,-0.27
12.178,-0.26
12.181,-0.25
12.183,-0.25
12.186,-0.255
12.189,-0.25
12.192,-0.27
12.194,-0.27
12.197,-0.25
12.2,-0.23
12.203,-0.235
12.206,-0.24
12.208,-0.235
12.211,-0.235
12.214,-0.23
12.217,-0.225
12.219,-0.215
12.222,-0.235
12.225,-0.225
12.228,-0.22
12.231,-0.205
12.233,-0.205
12.236,-0.205
12.239,-0.205
12.242,-0.21
12.244,-0.225
12.247,-0.21
12.25,-0.195
12.253,-0.2
12.256,-0.215
12.258,-0.235
12.261,-0.23
12.264,-0.225
12.267,-0.225
12.269,-0.245
12.272,-0.25
12.275,-0.26
12.278,-0.265
12.281,-0.23
12.283,-0.235
12.286,-0.24
12.289,-0.25
12.292,-0.28
12.294,-0.27
12.297,-0.265
12.3,-0.255
12.303,-0.265
12.306,-0.275
12.308,-0.28
12.311,-0.29
12.314,-0.275
12.317,-0.265
12.319,-0.27
12.322,-0.27
12.325,-0.28
12.328,-0.28
12.331,-0.27
12.333,-0.265
12.336,-0.28
12.339,-0.285
12.342,-0.295
12.344,-0.295
12.347,-0.28
12.35,-0.265
12.353,-0.28
12.356,-0.3
12.358,-0.325
12.361,-0.355
12.364,-0.36
12.367,-0.355
12.369,-0.385
12.372,-0.4
12.375,-0.355
12.378,-0.27
12.381,-0.17
12.383,-0.075
12.386,-0.01
12.389,0.05
12.392,0.135
12.394,0.255
12.397,0.36
12.4,0.39
12.403,0.275
12.406,0.04
12.408,-0.225
12.411,-0.4
12.414,-0.41
12.417,-0.36
12.419,-0.345
12.422,-0.34
12.425,-0.345
12.428,-0.345
12.431,-0.33
12.433,-0.305
12.436,-0.315
12.439,-0.315
12.442,-0.325
12.444,-0.335
12.447,-0.33
12.45,-0.31
12.453,-0.315
12.456,-0.32
12.458,-0.32
12.461,-0.32
12.464,-0.32
12.467,-0.31
12.469,-0.325
12.472,-0.33
12.475,-0.345
12.478,-0.34
12.481,-0.32
12.483,-0.31
12.486,-0.31
12.489,-0.32
12.492,-0.325
12.494,-0.325
12.497,-0.315
12.5,-0.31
12.503,-0.31
12.506,-0.315
12.508,-0.33
12.511,-0.32
12.514,-0.315
12.517,-0.29
12.519,-0.305
12.522,-0.305
12.525,-0.32
12.528,-0.32
12.531,-0.325
12.533,-0.32
12.536,-0.315
12.539,-0.32
12.542,-0.325
12.544,-0.33
12.547,-0.315
12.55,-0.31
12.553,-0.315
12.556,-0.33
12.558,-0.34
12.561,-0.335
12.564,-0.315
12.567,-0.305
12.569,-0.32
12.572,-0.325
12.575,-0.32
12.578,-0.325
12.581,-0.33
12.583,-0.32
12.586,-0.31
12.589,-0.325
12.592,-0.325
12.594,-0.33
12.597,-0.325
12.6,-0.33
12.603,-0.33
12.606,-0.335
12.608,-0.335
12.611,-0.345
12.614,-0.335
12.617,-0.34
12.619,-0.345
12.622,-0.35
12.625,-0.36
12.628,-0.38
12.631,-0.365
12.633,-0.36
12.636,-0.37
12.639,-0.38
12.642,-0.405
12.644,-0.425
12.647,-0.42
12.65,-0.405
12.653,-0.41
12.656,-0.425
12.658,-0.44
12.661,-0.445
12.664,-0.44
12.667,-0.43
12.669,-0.43
12.672,-0.44
12.675,-0.45
12.678,-0.465
12.681,-0.44
12.683,-0.435
12.686,-0.445
12.689,-0.465
12.692,-0.45
12.694,-0.445
12.697,-0.42
12.7,-0.4
12.703,-0.385
12.706,-0.38
12.708,-0.38
12.711,-0.375
12.714,-0.365
12.717,-0.345
12.719,-0.34
12.722,-0.34
12.725,-0.325
12.728,-0.305
12.731,-0.28
12.733,-0.275
12.736,-0.29
12.739,-0.305
12.742,-0.31
12.744,-0.305
12.747,-0.29
12.75,-0.28
12.753,-0.28
12.756,-0.27
12.758,-0.29
12.761,-0.285
12.764,-0.29
12.767,-0.275
12.769,-0.29
12.772,-0.295
12.775,-0.29
12.778,-0.3
12.781,-0.28
12.783,-0.27
12.786,-0.28
12.789,-0.285
12.792,-0.3
12.794,-0.29
12.797,-0.285
12.8,-0.275
12.803,-0.285
12.806,-0.3
12.808,-0.305
12.811,-0.31
12.814,-0.295
12.817,-0.295
12.819,-0.29
12.822,-0.295
12.825,-0.305
12.828,-0.31
12.831,-0.305
12.833,-0.295
12.836,-0.295
12.839,-0.3
12.842,-0.3
12.844,-0.31
12.847,-0.32
12.85,-0.3
12.853,-0.325
12.856,-0.325
12.858,-0.325
12.861,-0.335
12.864,-0.33
12.867,-0.31
12.869,-0.32
12.872,-0.325
12.875,-0.335
12.878,-0.34
12.881,-0.325
12.883,-0.315
12.886,-0.33
12.889,-0.33
12.892,-0.335
12.894,-0.34
12.897,-0.335
12.9,-0.315
12.903,-0.33
12.906,-0.345
12.908,-0.34
12.911,-0.34
12.914,-0.33
12.917,-0.325
12.919,-0.33
12.922,-0.34
12.925,-0.35
12.928,-0.355
12.931,-0.335
12.933,-0.32
12.936,-0.325
12.939,-0.33
12.942,-0.33
12.944,-0.355
12.947,-0.34
12.95,-0.32
12.953,-0.335
12.956,-0.335
12.958,-0.33
12.961,-0.35
12.964,-0.335
12.967,-0.335
12.969,-0.34
12.972,-0.34
12.975,-0.35
12.978,-0.345
12.981,-0.325
12.983,-0.32
12.986,-0.325
12.989,-0.345
12.992,-0.35
12.994,-0.35
12.997,-0.345
13,-0.33
13.003,-0.315
13.006,-0.33
13.008,-0.34
13.011,-0.345
13.014,-0.34
13.017,-0.32
13.019,-0.33
13.022,-0.34
13.025,-0.35
13.028,-0.335
13.031,-0.325
13.033,-0.31
13.036,-0.305
13.039,-0.32
13.042,-0.315
13.044,-0.32
13.047,-0.31
13.05,-0.29
13.053,-0.295
13.056,-0.305
13.058,-0.305
13.061,-0.31
13.064,-0.295
13.067,-0.28
13.069,-0.28
13.072,-0.285
13.075,-0.29
13.078,-0.295
13.081,-0.29
13.083,-0.285
13.086,-0.295
13.089,-0.3
13.092,-0.315
13.094,-0.315
13.097,-0.305
13.1,-0.295
13.103,-0.305
13.106,-0.31
13.108,-0.345
13.111,-0.335
13.114,-0.34
13.117,-0.335
13.119,-0.33
13.122,-0.33
13.125,-0.345
13.128,-0.345
13.131,-0.34
13.133,-0.335
13.136,-0.33
13.139,-0.335
13.142,-0.335
13.144,-0.33
13.147,-0.325
13.15,-0.31
13.153,-0.325
13.156,-0.325
13.158,-0.33
13.161,-0.335
13.164,-0.335
13.167,-0.315
13.169,-0.32
13.172,-0.33
13.175,-0.325
13.178,-0.335
13.181,-0.325
13.183,-0.33
13.186,-0.35
13.189,-0.375
13.192,-0.395
13.194,-0.425
13.197,-0.425
13.2,-0.43
13.203,-0.425
13.206,-0.365
13.208,-0.27
13.211,-0.165
13.214,-0.065
13.217,0.015
13.219,0.08
13.222,0.18
13.225,0.295
13.228,0.39
13.231,0.405
13.233,0.315
13.236,0.025
13.239,-0.26
13.242,-0.44
13.244,-0.465
13.247,-0.415
13.25,-0.375
13.253,-0.36
13.256,-0.35
13.258,-0.35
13.261,-0.35
13.264,-0.335
13.267,-0.325
13.269,-0.325
13.272,-0.34
13.275,-0.33
13.278,-0.335
13.281,-0.325
13.283,-0.325
13.286,-0.335
13.289,-0.325
13.292,-0.35
13.294,-0.34
13.297,-0.34
13.3,-0.31
13.303,-0.32
13.306,-0.325
13.308,-0.345
13.311,-0.34
13.314,-0.33
13.317,-0.315
13.319,-0.31
13.322,-0.32
13.325,-0.335
13.328,-0.335
13.331,-0.325
13.333,-0.315
13.336,-0.325
13.339,-0.33
13.342,-0.325
13.344,-0.33
13.347,-0.315
13.35,-0.32
13.353,-0.31
13.356,-0.32
13.358,-0.335
13.361,-0.33
13.364,-0.315
13.367,-0.315
13.369,-0.315
13.372,-0.32
13.375,-0.33
13.378,-0.33
13.381,-0.315
13.383,-0.31
13.386,-0.305
13.389,-0.32
13.392,-0.335
13.394,-0.335
13.397,-0.345
13.4,-0.325
13.403,-0.33
13.406,-0.33
13.408,-0.335
13.411,-0.335
13.414,-0.33
13.417,-0.325
13.419,-0.33
13.422,-0.335
13.425,-0.355
13.428,-0.355
13.431,-0.35
13.433,-0.33
13.436,-0.34
13.439,-0.36
13.442,-0.365
13.444,-0.365
13.447,-0.37
13.45,-0.35
13.453,-0.355
13.456,-0.37
13.458,-0.38
13.461,-0.39
13.464,-0.385
13.467,-0.38
13.469,-0.39
13.472,-0.395
13.475,-0.42
13.478,-0.43
13.481,-0.42
13.483,-0.41
13.486,-0.425
13.489,-0.43
13.492,-0.45
13.494,-0.46
13.497,-0.445
13.5,-0.455
13.503,-0.45
13.506,-0.45
13.508,-0.47
13.511,-0.465
13.514,-0.46
13.517,-0.44
13.519,-0.445
13.522,-0.435
13.525,-0.42
13.528,-0.4
13.531,-0.38
13.533,-0.365
13.536,-0.365
13.539,-0.355
13.542,-0.34
13.544,-0.345
13.547,-0.32
13.55,-0.3
13.553,-0.29
13.556,-0.28
13.558,-0.295
13.561,-0.285
13.564,-0.27
13.567,-0.26
13.569,-0.255
13.572,-0.25
13.575,-0.25
13.578,-0.255
13.581,-0.245
13.583,-0.245
13.586,-0.235
13.589,-0.245
13.592,-0.24
13.594,-0.25
13.597,-0.24
13.6,-0.23
13.603,-0.235
13.606,-0.24
13.608,-0.26
13.611,-0.25
13.614,-0.24
13.617,-0.23
13.619,-0.235
13.622,-0.235
13.625,-0.265
13.628,-0.265
13.631,-0.255
13.633,-0.245
13.636,-0.245
13.639,-0.25
13.642,-0.27
13.644,-0.27
13.647,-0.255
13.65,-0.25
13.653,-0.255
13.656,-0.255
13.658,-0.26
13.661,-0.255
13.664,-0.255
13.667,-0.25
13.669,-0.255
13.672,-0.27
13.675,-0.275
13.678,-0.28
13.681,-0.25
13.683,-0.25
13.686,-0.255
13.689,-0.27
13.692,-0.275
13.694,-0.275
13.697,-0.27
13.7,-0.26
13.703,-0.26
13.706,-0.265
13.708,-0.28
13.711,-0.28
13.714,-0.265
13.717,-0.255
13.719,-0.26
13.722,-0.28
13.725,-0.275
13.728,-0.28
13.731,-0.265
13.733,-0.255
13.736,-0.27
13.739,-0.265
13.742,-0.285
13.744,-0.285
13.747,-0.27
13.75,-0.26
13.753,-0.265
13.756,-0.26
13.758,-0.28
13.761,-0.27
13.764,-0.275
13.767,-0.265
13.769,-0.255
13.772,-0.275
13.775,-0.28
13.778,-0.275
13.781,-0.27
13.783,-0.26
13.786,-0.265
13.789,-0.26
13.792,-0.27
13.794,-0.28
13.797,-0.26
13.8,-0.255
13.803,-0.26
13.806,-0.27
13.808,-0.27
13.811,-0.275
13.814,-0.265
13.817,-0.25
13.819,-0.25
13.822,-0.26
13.825,-0.265
13.828,-0.275
13.831,-0.265
13.833,-0.255
13.836,-0.25
13.839,-0.265
13.842,-0.26
13.844,-0.265
13.847,-0.25
13.85,-0.235
13.853,-0.26
13.856,-0.26
13.858,-0.25
13.861,-0.25
13.864,-0.24
13.867,-0.22
13.869,-0.215
13.872,-0.23
13.875,-0.24
13.878,-0.225
13.881,-0.22
13.883,-0.195
13.886,-0.2
13.889,-0.21
13.892,-0.2
13.894,-0.215
13.897,-0.19
13.9,-0.195
13.903,-0.195
13.906,-0.19
13.908,-0.21
13.911,-0.21
13.914,-0.2
13.917,-0.21
13.919,-0.225
13.922,-0.22
13.925,-0.23
13.928,-0.235
13.931,-0.225
13.933,-0.22
13.936,-0.235
13.939,-0.24
13.942,-0.23
13.944,-0.25
13.947,-0.255
13.95,-0.245
13.953,-0.24
13.956,-0.245
13.958,-0.25
13.961,-0.255
13.964,-0.24
13.967,-0.235
13.969,-0.24
13.972,-0.245
13.975,-0.255
13.978,-0.26
13.981,-0.255
13.983,-0.23
13.986,-0.24
13.989,-0.245
13.992,-0.255
13.994,-0.265
13.997,-0.265
14,-0.25
14.003,-0.245
14.006,-0.25
14.008,-0.27
14.011,-0.3
14.014,-0.32
14.017,-0.33
14.019,-0.355
14.022,-0.385
14.025,-0.37
14.028,-0.32
14.031,-0.19
14.033,-0.05
14.036,0.075
14.039,0.19
14.042,0.305
14.044,0.435
14.047,0.57
14.05,0.66
14.053,0.645
14.056,0.455
14.058,0.12
14.061,-0.175
14.064,-0.295
14.067,-0.26
14.069,-0.255
14.072,-0.275
14.075,-0.28
14.078,-0.28
14.081,-0.275
14.083,-0.28
14.086,-0.28
14.089,-0.285
14.092,-0.295
14.094,-0.3
14.097,-0.29
14.1,-0.285
14.103,-0.295
14.106,-0.3
14.108,-0.31
14.111,-0.295
14.114,-0.305
14.117,-0.29
14.119,-0.285
14.122,-0.3
14.125,-0.305
14.128,-0.3
14.131,-0.29
14.133,-0.285
14.136,-0.29
14.139,-0.29
14.142,-0.295
14.144,-0.29
14.147,-0.29
14.15,-0.285
14.153,-0.285
14.156,-0.29
14.158,-0.31
14.161,-0.305
14.164,-0.285
14.167,-0.28
14.169,-0.28
14.172,-0.285
14.175,-0.295
14.178,-0.305
14.181,-0.29
14.183,-0.27
14.186,-0.28
14.189,-0.28
14.192,-0.295
14.194,-0.305
14.197,-0.295
14.2,-0.28
14.203,-0.28
14.206,-0.285
14.208,-0.295
14.211,-0.295
14.214,-0.295
14.217,-0.29
14.219,-0.295
14.222,-0.3
14.225,-0.31
14.228,-0.3
14.231,-0.3
14.233,-0.295
14.236,-0.305
14.239,-0.315
14.242,-0.33
14.244,-0.325
14.247,-0.325
14.25,-0.315
14.253,-0.325
14.256,-0.33
14.258,-0.345
14.261,-0.35
14.264,-0.345
14.267,-0.335
14.269,-0.355
14.272,-0.38
14.275,-0.375
14.278,-0.385
14.281,-0.375
14.283,-0.37
14.286,-0.38
14.289,-0.395
14.292,-0.41
14.294,-0.41
14.297,-0.405
14.3,-0.4
14.303,-0.405
14.306,-0.42
14.308,-0.43
14.311,-0.43
14.314,-0.42
14.317,-0.41
14.319,-0.405
14.322,-0.405
14.325,-0.41
14.328,-0.405
14.331,-0.385
14.333,-0.37
14.336,-0.355
14.339,-0.345
14.342,-0.335
14.344,-0.32
14.347,-0.3
14.35,-0.28
14.353,-0.27
14.356,-0.265
14.358,-0.265
14.361,-0.25
14.364,-0.225
14.367,-0.215
14.369,-0.215
14.372,-0.23
14.375,-0.225
14.378,-0.225
14.381,-0.225
14.383,-0.21
14.386,-0.21
14.389,-0.215
14.392,-0.21
14.394,-0.21
14.397,-0.21
14.4,-0.195
14.403,-0.2
14.406,-0.215
14.408,-0.22
14.411,-0.215
14.414,-0.205
14.417,-0.195
14.419,-0.205
14.422,-0.22
14.425,-0.225
14.428,-0.22
14.431,-0.21
14.433,-0.205
14.436,-0.21
14.439,-0.215
14.442,-0.225
14.444,-0.23
14.447,-0.22
14.45,-0.21
14.453,-0.22
14.456,-0.22
14.458,-0.235
14.461,-0.235
14.464,-0.225
14.467,-0.215
14.469,-0.22
14.472,-0.225
14.475,-0.235
14.478,-0.235
14.481,-0.23
14.483,-0.215
14.486,-0.215
14.489,-0.225
14.492,-0.24
14.494,-0.25
14.497,-0.235
14.5,-0.235
14.503,-0.235
14.506,-0.235
14.508,-0.26
14.511,-0.25
14.514,-0.235
14.517,-0.235
14.519,-0.23
14.522,-0.24
14.525,-0.25
14.528,-0.245
14.531,-0.24
14.533,-0.24
14.536,-0.24
14.539,-0.245
14.542,-0.25
14.544,-0.255
14.547,-0.245
14.55,-0.24
14.553,-0.245
14.556,-0.255
14.558,-0.255
14.561,-0.26
14.564,-0.245
14.567,-0.23
14.569,-0.25
14.572,-0.245
14.575,-0.26
14.578,-0.26
14.581,-0.24
14.583,-0.23
14.586,-0.225
14.589,-0.23
14.592,-0.25
14.594,-0.25
14.597,-0.24
14.6,-0.23
14.603,-0.235
14.606,-0.245
14.608,-0.24
14.611,-0.23
14.614,-0.225
14.617,-0.235
14.619,-0.23
14.622,-0.23
14.625,-0.24
14.628,-0.245
14.631,-0.23
14.633,-0.225
14.636,-0.225
14.639,-0.23
14.642,-0.245
14.644,-0.24
14.647,-0.23
14.65,-0.215
14.653,-0.21
14.656,-0.225
14.658,-0.225
14.661,-0.23
14.664,-0.215
14.667,-0.2
14.669,-0.205
14.672,-0.21
14.675,-0.21
14.678,-0.2
14.681,-0.19
14.683,-0.18
14.686,-0.185
14.689,-0.195
14.692,-0.2
14.694,-0.195
14.697,-0.185
14.7,-0.155
14.703,-0.165
14.706,-0.17
14.708,-0.18
14.711,-0.175
14.714,-0.18
14.717,-0.16
14.719,-0.185
14.722,-0.19
14.725,-0.205
14.728,-0.205
14.731,-0.195
14.733,-0.19
14.736,-0.2
14.739,-0.205
14.742,-0.225
14.744,-0.23
14.747,-0.225
14.75,-0.2
14.753,-0.215
14.756,-0.225
14.758,-0.23
14.761,-0.245
14.764,-0.235
14.767,-0.215
14.769,-0.225
14.772,-0.235
14.775,-0.23
14.778,-0.235
14.781,-0.22
14.783,-0.22
14.786,-0.225
14.789,-0.225
14.792,-0.225
14.794,-0.23
14.797,-0.225
14.8,-0.225
14.803,-0.245
14.806,-0.28
14.808,-0.305
14.811,-0.335
14.814,-0.35
14.817,-0.36
14.819,-0.36
14.822,-0.315
14.825,-0.22
14.828,-0.095
14.831,0.025
14.833,0.14
14.836,0.245
14.839,0.365
14.842,0.465
14.844,0.565
14.847,0.58
14.85,0.415
14.853,0.075
14.856,-0.21
14.858,-0.33
14.861,-0.3
14.864,-0.27
14.867,-0.26
14.869,-0.26
14.872,-0.255
14.875,-0.265
14.878,-0.265
14.881,-0.255
14.883,-0.25
14.886,-0.26
14.889,-0.265
14.892,-0.26
14.894,-0.275
14.897,-0.255
14.9,-0.255
14.903,-0.26
14.906,-0.275
14.908,-0.275
14.911,-0.275
14.914,-0.26
14.917,-0.26
14.919,-0.255
14.922,-0.275
14.925,-0.285
14.928,-0.28
14.931,-0.265
14.933,-0.25
14.936,-0.25
14.939,-0.26
14.942,-0.275
14.944,-0.285
14.947,-0.275
14.95,-0.25
14.953,-0.255
14.956,-0.255
14.958,-0.27
14.961,-0.27
14.964,-0.255
14.967,-0.25
14.969,-0.25
14.972,-0.255
14.975,-0.255
14.978,-0.25
14.981,-0.255
14.983,-0.235
14.986,-0.24
14.989,-0.255
14.992,-0.255
14.994,-0.265
14.997,-0.26
15,-0.25
15.003,-0.25
15.006,-0.26
15.008,-0.275
15.011,-0.28
15.014,-0.275
15.017,-0.255
15.019,-0.265
15.022,-0.285
15.025,-0.28
15.028,-0.295
15.031,-0.295
15.033,-0.275
15.036,-0.285
15.039,-0.295
15.042,-0.305
15.044,-0.305
15.047,-0.305
15.05,-0.305
15.053,-0.31
15.056,-0.315
15.058,-0.33
15.061,-0.33
15.064,-0.315
15.067,-0.315
15.069,-0.32
15.072,-0.34
15.075,-0.365
15.078,-0.36
15.081,-0.36
15.083,-0.345
15.086,-0.365
15.089,-0.365
15.092,-0.385
15.094,-0.385
15.097,-0.39
15.1,-0.375
15.103,-0.365
15.106,-0.385
15.108,-0.4
15.111,-0.395
15.114,-0.39
15.117,-0.38
15.119,-0.385
15.122,-0.4
15.125,-0.405
15.128,-0.4
15.131,-0.395
15.133,-0.37
15.136,-0.37
15.139,-0.365
15.142,-0.37
15.144,-0.35
15.147,-0.335
15.15,-0.32
15.153,-0.32
15.156,-0.31
15.158,-0.305
15.161,-0.295
15.164,-0.285
15.167,-0.27
15.169,-0.255
15.172,-0.265
15.175,-0.27
15.178,-0.25
15.181,-0.24
15.183,-0.225
15.186,-0.23
15.189,-0.225
15.192,-0.235
15.194,-0.245
15.197,-0.25
15.2,-0.235
15.203,-0.235
15.206,-0.24
15.208,-0.255
15.211,-0.25
15.214,-0.235
15.217,-0.235
15.219,-0.24
15.222,-0.245
15.225,-0.255
15.228,-0.255
15.231,-0.26
15.233,-0.245
15.236,-0.245
15.239,-0.255
15.242,-0.265
15.244,-0.27
15.247,-0.26
15.25,-0.24
15.253,-0.24
15.256,-0.255
15.258,-0.28
15.261,-0.265
15.264,-0.265
15.267,-0.26
15.269,-0.26
15.272,-0.255
15.275,-0.26
15.278,-0.26
15.281,-0.255
15.283,-0.25
15.286,-0.26
15.289,-0.265
15.292,-0.28
15.294,-0.29
15.297,-0.275
15.3,-0.255
15.303,-0.26
15.306,-0.275
15.308,-0.29
15.311,-0.29
15.314,-0.285
15.317,-0.28
15.319,-0.275
15.322,-0.28
15.325,-0.285
15.328,-0.29
15.331,-0.285
15.333,-0.275
15.336,-0.285
15.339,-0.285
15.342,-0.285
15.344,-0.295
15.347,-0.285
15.35,-0.28
15.353,-0.275
15.356,-0.29
15.358,-0.3
15.361,-0.295
15.364,-0.285
15.367,-0.28
15.369,-0.28
15.372,-0.295
15.375,-0.295
15.378,-0.3
15.381,-0.29
15.383,-0.27
15.386,-0.275
15.389,-0.28
15.392,-0.29
15.394,-0.295
15.397,-0.285
15.4,-0.285
15.403,-0.285
15.406,-0.29
15.408,-0.3
15.411,-0.295
15.414,-0.295
15.417,-0.275
15.419,-0.28
15.422,-0.28
15.425,-0.3
15.428,-0.3
15.431,-0.285
15.433,-0.275
15.436,-0.27
15.439,-0.295
15.442,-0.295
15.444,-0.305
15.447,-0.29
15.45,-0.27
15.453,-0.28
15.456,-0.29
15.458,-0.29
15.461,-0.275
15.464,-0.255
15.467,-0.25
15.469,-0.26
15.472,-0.27
15.475,-0.28
15.478,-0.27
15.481,-0.265
15.483,-0.245
15.486,-0.245
15.489,-0.255
15.492,-0.25
15.494,-0.24
15.497,-0.235
15.5,-0.23
15.503,-0.23
15.506,-0.25
15.508,-0.265
15.511,-0.275
15.514,-0.275
15.517,-0.26
15.519,-0.255
15.522,-0.265
15.525,-0.29
15.528,-0.295
15.531,-0.295
15.533,-0.28
15.536,-0.27
15.539,-0.29
15.542,-0.3
15.544,-0.295
15.547,-0.3
15.55,-0.3
15.553,-0.3
15.556,-0.305
15.558,-0.295
15.561,-0.295
15.564,-0.295
15.567,-0.3
15.569,-0.3
15.572,-0.3
15.575,-0.3
15.578,-0.315
15.581,-0.305
15.583,-0.28
15.586,-0.29
15.589,-0.295
15.592,-0.325
15.594,-0.34
15.597,-0.36
15.6,-0.365
15.603,-0.38
15.606,-0.415
15.608,-0.45
15.611,-0.42
15.614,-0.345
15.617,-0.245
15.619,-0.16
15.622,-0.09
15.625,-0.06
15.628,-0.005
15.631,0.05
15.633,0.165
15.636,0.265
15.639,0.38
15.642,0.46
15.644,0.495
15.647,0.485
15.65,0.335
15.653,0.045
15.656,-0.245
15.658,-0.43
15.661,-0.48
15.664,-0.43
15.667,-0.4
15.669,-0.38
15.672,-0.365
15.675,-0.355
15.678,-0.365
15.681,-0.345
15.683,-0.345
15.686,-0.34
15.689,-0.345
15.692,-0.365
15.694,-0.36
15.697,-0.36
15.7,-0.34
15.703,-0.35
15.706,-0.345
15.708,-0.365
15.711,-0.36
15.714,-0.36
15.717,-0.345
15.719,-0.345
15.722,-0.36
15.725,-0.36
15.728,-0.37
15.731,-0.355
15.733,-0.345
15.736,-0.345
15.739,-0.355
15.742,-0.36
15.744,-0.36
15.747,-0.355
15.75,-0.35
15.753,-0.34
15.756,-0.345
15.758,-0.36
15.761,-0.345
15.764,-0.355
15.767,-0.335
15.769,-0.35
15.772,-0.365
15.775,-0.36
15.778,-0.37
15.781,-0.36
15.783,-0.345
15.786,-0.34
15.789,-0.355
15.792,-0.375
15.794,-0.38
15.797,-0.365
15.8,-0.36
15.803,-0.355
15.806,-0.355
15.808,-0.35
15.811,-0.365
15.814,-0.355
15.817,-0.36
15.819,-0.365
15.822,-0.385
15.825,-0.39
15.828,-0.38
15.831,-0.37
15.833,-0.365
15.836,-0.385
15.839,-0.385
15.842,-0.42
15.844,-0.405
15.847,-0.39
15.85,-0.39
15.853,-0.385
15.856,-0.395
15.858,-0.405
15.861,-0.4
15.864,-0.395
15.867,-0.395
15.869,-0.405
15.872,-0.425
15.875,-0.44
15.878,-0.455
15.881,-0.455
15.883,-0.445
15.886,-0.465
15.889,-0.465
15.892,-0.48
15.894,-0.485
15.897,-0.485
15.9,-0.485
15.903,-0.49
15.906,-0.5
15.908,-0.51
15.911,-0.525
15.914,-0.51
15.917,-0.495
15.919,-0.5
15.922,-0.515
15.925,-0.51
15.928,-0.49
15.931,-0.475
15.933,-0.45
15.936,-0.45
15.939,-0.45
15.942,-0.44
15.944,-0.43
15.947,-0.405
15.95,-0.39
15.953,-0.39
15.956,-0.38
15.958,-0.38
15.961,-0.37
15.964,-0.355
15.967,-0.34
15.969,-0.34
15.972,-0.33
15.975,-0.34
15.978,-0.33
15.981,-0.325
15.983,-0.32
15.986,-0.32
15.989,-0.32
15.992,-0.325
15.994,-0.335
15.997,-0.315
16,-0.315
16.003,-0.305
16.006,-0.325
16.008,-0.34
16.011,-0.345
16.014,-0.325
16.017,-0.32
16.019,-0.32
16.022,-0.325
16.025,-0.34
16.028,-0.345
16.031,-0.33
16.033,-0.31
16.036,-0.315
16.039,-0.32
16.042,-0.345
16.044,-0.345
16.047,-0.325
16.05,-0.34
16.053,-0.335
16.056,-0.345
16.058,-0.34
16.061,-0.35
16.064,-0.345
16.067,-0.335
16.069,-0.345
16.072,-0.345
16.075,-0.355
16.078,-0.355
16.081,-0.345
16.083,-0.335
16.086,-0.345
16.089,-0.345
16.092,-0.355
16.094,-0.35
16.097,-0.355
16.1,-0.34
16.103,-0.355
16.106,-0.36
16.108,-0.355
16.111,-0.34
16.114,-0.345
16.117,-0.345
16.119,-0.345
16.122,-0.355
16.125,-0.34
16.128,-0.37
16.131,-0.37
16.133,-0.35
16.136,-0.35
16.139,-0.35
16.142,-0.36
16.144,-0.37
16.147,-0.37
16.15,-0.36
16.153,-0.36
16.156,-0.355
16.158,-0.36
16.161,-0.36
16.164,-0.35
16.167,-0.345
16.169,-0.35
16.172,-0.355
16.175,-0.365
16.178,-0.36
16.181,-0.35
16.183,-0.33
16.186,-0.335
16.189,-0.34
16.192,-0.35
16.194,-0.36
16.197,-0.34
16.2,-0.34
16.203,-0.335
16.206,-0.34
16.208,-0.35
16.211,-0.35
16.214,-0.34
16.217,-0.33
16.219,-0.33
16.222,-0.34
16.225,-0.345
16.228,-0.345
16.231,-0.345
16.233,-0.335
16.236,-0.32
16.239,-0.335
16.242,-0.34
16.244,-0.345
16.247,-0.325
16.25,-0.3
16.253,-0.315
16.256,-0.315
16.258,-0.305
16.261,-0.3
16.264,-0.28
16.267,-0.27
16.269,-0.29
16.272,-0.29
16.275,-0.295
16.278,-0.29
16.281,-0.275
16.283,-0.255
16.286,-0.265
16.289,-0.275
16.292,-0.28
16.294,-0.285
16.297,-0.28
16.3,-0.27
16.303,-0.285
16.306,-0.305
16.308,-0.305
16.311,-0.305
16.314,-0.295
16.317,-0.295
16.319,-0.295
16.322,-0.315
16.325,-0.325
16.328,-0.325
16.331,-0.31
16.333,-0.305
16.336,-0.3
16.339,-0.31
16.342,-0.325
16.344,-0.325
16.347,-0.325
16.35,-0.305
16.353,-0.305
16.356,-0.325
16.358,-0.32
16.361,-0.325
16.364,-0.31
16.367,-0.31
16.369,-0.315
16.372,-0.32
16.375,-0.325
16.378,-0.32
16.381,-0.315
16.383,-0.305
16.386,-0.3
16.389,-0.325
16.392,-0.335
16.394,-0.35
16.397,-0.355
16.4,-0.38
16.403,-0.415
16.406,-0.43
16.408,-0.455
16.411,-0.41
16.414,-0.305
16.417,-0.16
16.419,-0.045
16.422,0.035
16.425,0.12
16.428,0.245
16.431,0.385
16.433,0.495
16.436,0.475
16.439,0.295
16.442,-0.04
16.444,-0.35
16.447,-0.44
16.45,-0.415
16.453,-0.38
16.456,-0.36
16.458,-0.365
16.461,-0.355
16.464,-0.34
16.467,-0.34
16.469,-0.335
16.472,-0.35
16.475,-0.37
16.478,-0.36
16.481,-0.355
16.483,-0.355
16.486,-0.35
16.489,-0.35
16.492,-0.355
16.494,-0.35
16.497,-0.35
16.5,-0.34
16.503,-0.345
16.506,-0.345
16.508,-0.35
16.511,-0.345
16.514,-0.335
16.517,-0.335
16.519,-0.33
16.522,-0.345
16.525,-0.345
16.528,-0.34
16.531,-0.335
16.533,-0.32
16.536,-0.335
16.539,-0.33
16.542,-0.34
16.544,-0.34
16.547,-0.335
16.55,-0.325
16.553,-0.325
16.556,-0.34
16.558,-0.345
16.561,-0.345
16.564,-0.32
16.567,-0.32
16.569,-0.33
16.572,-0.345
16.575,-0.335
16.578,-0.34
16.581,-0.33
16.583,-0.325
16.586,-0.33
16.589,-0.34
16.592,-0.345
16.594,-0.35
16.597,-0.335
16.6,-0.325
16.603,-0.34
16.606,-0.335
16.608,-0.355
16.611,-0.36
16.614,-0.355
16.617,-0.35
16.619,-0.345
16.622,-0.355
16.625,-0.375
16.628,-0.365
16.631,-0.375
16.633,-0.375
16.636,-0.365
16.639,-0.375
16.642,-0.385
16.644,-0.39
16.647,-0.38
16.65,-0.37
16.653,-0.38
16.656,-0.39
16.658,-0.405
16.661,-0.425
16.664,-0.42
16.667,-0.425
16.669,-0.425
16.672,-0.435
16.675,-0.445
16.678,-0.45
16.681,-0.46
16.683,-0.455
16.686,-0.47
16.689,-0.475
16.692,-0.49
16.694,-0.49
16.697,-0.475
16.7,-0.465
16.703,-0.47
16.706,-0.48
16.708,-0.485
16.711,-0.47
16.714,-0.465
16.717,-0.43
16.719,-0.43
16.722,-0.42
16.725,-0.42
16.728,-0.39
16.731,-0.375
16.733,-0.365
16.736,-0.35
16.739,-0.34
16.742,-0.325
16.744,-0.325
16.747,-0.31
16.75,-0.29
16.753,-0.285
16.756,-0.29
16.758,-0.29
16.761,-0.285
16.764,-0.27
16.767,-0.245
16.769,-0.265
16.772,-0.265
16.775,-0.28
16.778,-0.29
16.781,-0.27
16.783,-0.255
16.786,-0.27
16.789,-0.265
16.792,-0.275
16.794,-0.28
16.797,-0.275
16.8,-0.265
16.803,-0.27
16.806,-0.28
16.808,-0.28
16.811,-0.285
16.814,-0.275
16.817,-0.265
16.819,-0.27
16.822,-0.27
16.825,-0.285
16.828,-0.29
16.831,-0.27
16.833,-0.26
16.836,-0.265
16.839,-0.28
16.842,-0.285
16.844,-0.28
16.847,-0.28
16.85,-0.27
16.853,-0.28
16.856,-0.28
16.858,-0.285
16.861,-0.29
16.864,-0.28
16.867,-0.275
16.869,-0.29
16.872,-0.295
16.875,-0.305
16.878,-0.295
16.881,-0.285
16.883,-0.28
16.886,-0.29
16.889,-0.3
16.892,-0.31
16.894,-0.31
16.897,-0.305
16.9,-0.285
16.903,-0.29
16.906,-0.295
16.908,-0.305
16.911,-0.305
16.914,-0.3
16.917,-0.295
16.919,-0.3
16.922,-0.29
16.925,-0.305
16.928,-0.3
16.931,-0.285
16.933,-0.27
16.936,-0.275
16.939,-0.29
16.942,-0.295
16.944,-0.3
16.947,-0.295
16.95,-0.285
16.953,-0.285
16.956,-0.285
16.958,-0.29
16.961,-0.285
16.964,-0.28
16.967,-0.27
16.969,-0.29
16.972,-0.29
16.975,-0.295
16.978,-0.28
16.981,-0.285
16.983,-0.27
16.986,-0.275
16.989,-0.285
16.992,-0.29
16.994,-0.285
16.997,-0.28
17,-0.255
17.003,-0.265
17.006,-0.265
17.008,-0.28
17.011,-0.285
17.014,-0.28
17.017,-0.27
17.019,-0.25
17.022,-0.27
17.025,-0.265
17.028,-0.28
17.031,-0.275
17.033,-0.265
17.036,-0.27
17.039,-0.28
17.042,-0.28
17.044,-0.28
17.047,-0.255
17.05,-0.26
17.053,-0.25
17.056,-0.255
17.058,-0.26
17.061,-0.255
17.064,-0.235
17.067,-0.215
17.069,-0.225
17.072,-0.235
17.075,-0.235
17.078,-0.24
17.081,-0.23
17.083,-0.21
17.086,-0.205
17.089,-0.205
17.092,-0.2
17.094,-0.2
17.097,-0.2
17.1,-0.19
17.103,-0.19
17.106,-0.205
17.108,-0.21
17.111,-0.205
17.114,-0.205
17.117,-0.2
17.119,-0.21
17.122,-0.225
17.125,-0.235
17.128,-0.235
17.131,-0.23
17.133,-0.215
17.136,-0.225
17.139,-0.235
17.142,-0.235
17.144,-0.245
17.147,-0.24
17.15,-0.23
17.153,-0.24
17.156,-0.245
17.158,-0.255
17.161,-0.26
17.164,-0.255
17.167,-0.23
17.169,-0.245
17.172,-0.255
17.175,-0.255
17.178,-0.255
17.181,-0.245
17.183,-0.235
17.186,-0.245
17.189,-0.25
17.192,-0.26
17.194,-0.26
17.197,-0.25
17.2,-0.24
17.203,-0.25
17.206,-0.265
17.208,-0.275
17.211,-0.275
17.214,-0.295
17.217,-0.31
17.219,-0.34
17.222,-0.375
17.225,-0.41
17.228,-0.42
17.231,-0.365
17.233,-0.235
17.236,-0.115
17.239,0.015
17.242,0.115
17.244,0.235
17.247,0.37
17.25,0.5
17.253,0.615
17.256,0.705
17.258,0.71
17.261,0.51
17.264,0.16
17.267,-0.125
17.269,-0.285
17.272,-0.295
17.275,-0.295
17.278,-0.305
17.281,-0.29
17.283,-0.28
17.286,-0.275
17.289,-0.27
17.292,-0.29
17.294,-0.29
17.297,-0.29
17.3,-0.28
17.303,-0.285
17.306,-0.295
17.308,-0.295
17.311,-0.305
17.314,-0.3
17.317,-0.3
17.319,-0.29
17.322,-0.295
17.325,-0.305
17.328,-0.31
17.331,-0.3
17.333,-0.29
17.336,-0.29
17.339,-0.295
17.342,-0.31
17.344,-0.3
17.347,-0.295
17.35,-0.28
17.353,-0.285
17.356,-0.295
17.358,-0.305
17.361,-0.31
17.364,-0.29
17.367,-0.285
17.369,-0.29
17.372,-0.29
17.375,-0.295
17.378,-0.3
17.381,-0.29
17.383,-0.28
17.386,-0.285
17.389,-0.29
17.392,-0.3
17.394,-0.305
17.397,-0.295
17.4,-0.28
17.403,-0.3
17.406,-0.295
17.408,-0.305
17.411,-0.305
17.414,-0.29
17.417,-0.275
17.419,-0.29
17.422,-0.3
17.425,-0.305
17.428,-0.31
17.431,-0.295
17.433,-0.295
17.436,-0.3
17.439,-0.305
17.442,-0.315
17.444,-0.315
17.447,-0.32
17.45,-0.315
17.453,-0.33
17.456,-0.32
17.458,-0.335
17.461,-0.34
17.464,-0.33
17.467,-0.31
17.469,-0.325
17.472,-0.33
17.475,-0.345
17.478,-0.35
17.481,-0.355
17.483,-0.345
17.486,-0.355
17.489,-0.36
17.492,-0.375
17.494,-0.39
17.497,-0.37
17.5,-0.38
17.503,-0.39
17.506,-0.4
17.508,-0.41
17.511,-0.41
17.514,-0.405
17.517,-0.405
17.519,-0.43
17.522,-0.44
17.525,-0.445
17.528,-0.465
17.531,-0.455
17.533,-0.445
17.536,-0.455
17.539,-0.455
17.542,-0.465
17.544,-0.47
17.547,-0.46
17.55,-0.45
17.553,-0.44
17.556,-0.445
17.558,-0.44
17.561,-0.43
17.564,-0.405
17.567,-0.395
17.569,-0.385
17.572,-0.37
17.575,-0.375
17.578,-0.355
17.581,-0.335
17.583,-0.305
17.586,-0.3
17.589,-0.305
17.592,-0.305
17.594,-0.29
17.597,-0.28
17.6,-0.27
17.603,-0.265
17.606,-0.265
17.608,-0.26
17.611,-0.265
17.614,-0.25
17.617,-0.245
17.619,-0.235
17.622,-0.24
17.625,-0.27
17.628,-0.26
17.631,-0.245
17.633,-0.245
17.636,-0.24
17.639,-0.25
17.642,-0.255
17.644,-0.26
17.647,-0.25
17.65,-0.24
17.653,-0.25
17.656,-0.255
17.658,-0.255
17.661,-0.26
17.664,-0.245
17.667,-0.245
17.669,-0.25
17.672,-0.265
17.675,-0.265
17.678,-0.265
17.681,-0.27
17.683,-0.245
17.686,-0.245
17.689,-0.25
17.692,-0.26
17.694,-0.265
17.697,-0.255
17.7,-0.26
17.703,-0.26
17.706,-0.265
17.708,-0.265
17.711,-0.26
17.714,-0.27
17.717,-0.255
17.719,-0.26
17.722,-0.275
17.725,-0.27
17.728,-0.275
17.731,-0.255
17.733,-0.255
17.736,-0.265
17.739,-0.27
17.742,-0.285
17.744,-0.275
17.747,-0.265
17.75,-0.265
17.753,-0.27
17.756,-0.27
17.758,-0.27
17.761,-0.265
17.764,-0.27
17.767,-0.265
17.769,-0.27
17.772,-0.275
17.775,-0.28
17.778,-0.295
17.781,-0.29
17.783,-0.275
17.786,-0.265
17.789,-0.27
17.792,-0.285
17.794,-0.275
17.797,-0.275
17.8,-0.265
17.803,-0.27
17.806,-0.28
17.808,-0.28
17.811,-0.28
17.814,-0.265
17.817,-0.255
17.819,-0.27
17.822,-0.275
17.825,-0.275
17.828,-0.28
17.831,-0.26
17.833,-0.255
17.836,-0.26
17.839,-0.255
17.842,-0.275
17.844,-0.275
17.847,-0.26
17.85,-0.255
17.853,-0.265
17.856,-0.26
17.858,-0.27
17.861,-0.265
17.864,-0.255
17.867,-0.25
17.869,-0.26
17.872,-0.255
17.875,-0.275
17.878,-0.265
17.881,-0.255
17.883,-0.24
17.886,-0.245
17.889,-0.255
17.892,-0.245
17.894,-0.265
17.897,-0.245
17.9,-0.24
17.903,-0.245
17.906,-0.25
17.908,-0.265
17.911,-0.265
17.914,-0.24
17.917,-0.225
17.919,-0.235
17.922,-0.25
17.925,-0.245
17.928,-0.25
17.931,-0.235
17.933,-0.22
17.936,-0.215
17.939,-0.21
17.942,-0.21
17.944,-0.225
17.947,-0.205
17.95,-0.2
17.953,-0.195
17.956,-0.205
17.958,-0.2
17.961,-0.195
17.964,-0.175
17.967,-0.175
17.969,-0.185
17.972,-0.185
17.975,-0.19
17.978,-0.205
17.981,-0.19
17.983,-0.195
17.986,-0.21
17.989,-0.21
17.992,-0.22
17.994,-0.225
17.997,-0.215
18,-0.215
18.003,-0.225
18.006,-0.22
18.008,-0.235
18.011,-0.235
18.014,-0.23
18.017,-0.22
18.019,-0.22
18.022,-0.24
18.025,-0.24
18.028,-0.245
18.031,-0.23
18.033,-0.23
18.036,-0.23
18.039,-0.245
18.042,-0.255
18.044,-0.25
18.047,-0.25
18.05,-0.24
18.053,-0.245
18.056,-0.25
18.058,-0.245
18.061,-0.25
18.064,-0.235
18.067,-0.22
18.069,-0.23
18.072,-0.245
18.075,-0.27
18.078,-0.275
18.081,-0.28
18.083,-0.285
18.086,-0.32
18.089,-0.345
18.092,-0.39
18.094,-0.395
18.097,-0.375
18.1,-0.29
18.103,-0.17
18.106,-0.05
18.108,0.04
18.111,0.125
18.114,0.245
18.117,0.365
18.119,0.46
18.122,0.56
18.125,0.6
18.128,0.515
18.131,0.275
18.133,-0.03
18.136,-0.26
18.139,-0.34
18.142,-0.305
18.144,-0.275
18.147,-0.285
18.15,-0.265
18.153,-0.25
18.156,-0.26
18.158,-0.27
18.161,-0.27
18.164,-0.27
18.167,-0.265
18.169,-0.27
18.172,-0.27
18.175,-0.28
18.178,-0.29
18.181,-0.275
18.183,-0.265
18.186,-0.27
18.189,-0.275
18.192,-0.28
18.194,-0.28
18.197,-0.27
18.2,-0.27
18.203,-0.27
18.206,-0.26
18.208,-0.28
18.211,-0.29
18.214,-0.27
18.217,-0.255
18.219,-0.265
18.222,-0.27
18.225,-0.285
18.228,-0.285
18.231,-0.25
18.233,-0.25
18.236,-0.27
18.239,-0.265
18.242,-0.275
18.244,-0.27
18.247,-0.265
18.25,-0.255
18.253,-0.255
18.256,-0.265
18.258,-0.275
18.261,-0.275
18.264,-0.265
18.267,-0.25
18.269,-0.26
18.272,-0.27
18.275,-0.28
18.278,-0.28
18.281,-0.275
18.283,-0.26
18.286,-0.265
18.289,-0.28
18.292,-0.285
18.294,-0.285
18.297,-0.265
18.3,-0.265
18.303,-0.275
18.306,-0.295
18.308,-0.3
18.311,-0.3
18.314,-0.285
18.317,-0.275
18.319,-0.295
18.322,-0.31
18.325,-0.305
18.328,-0.32
18.331,-0.305
18.333,-0.305
18.336,-0.31
18.339,-0.315
18.342,-0.335
18.344,-0.335
18.347,-0.335
18.35,-0.325
18.353,-0.335
18.356,-0.35
18.358,-0.37
18.361,-0.38
18.364,-0.37
18.367,-0.36
18.369,-0.38
18.372,-0.385
18.375,-0.4
18.378,-0.41
18.381,-0.405
18.383,-0.395
18.386,-0.4
18.389,-0.42
18.392,-0.43
18.394,-0.43
18.397,-0.43
18.4,-0.405
18.403,-0.415
18.406,-0.42
18.408,-0.425
18.411,-0.415
18.414,-0.41
18.417,-0.38
18.419,-0.38
18.422,-0.375
18.425,-0.38
18.428,-0.37
18.431,-0.345
18.433,-0.31
18.436,-0.32
18.439,-0.3
18.442,-0.305
18.444,-0.3
18.447,-0.29
18.45,-0.27
18.453,-0.275
18.456,-0.275
18.458,-0.275
18.461,-0.27
18.464,-0.245
18.467,-0.245
18.469,-0.24
18.472,-0.245
18.475,-0.255
18.478,-0.27
18.481,-0.265
18.483,-0.25
18.486,-0.25
18.489,-0.245
18.492,-0.255
18.494,-0.255
18.497,-0.255
18.5,-0.23
18.503,-0.245
18.506,-0.27
18.508,-0.275
18.511,-0.27
18.514,-0.255
18.517,-0.245
18.519,-0.26
18.522,-0.26
18.525,-0.27
18.528,-0.275
18.531,-0.265
18.533,-0.245
18.536,-0.255
18.539,-0.27
18.542,-0.265
18.544,-0.28
18.547,-0.27
18.55,-0.26
18.553,-0.265
18.556,-0.275
18.558,-0.275
18.561,-0.275
18.564,-0.285
18.567,-0.26
18.569,-0.275
18.572,-0.285
18.575,-0.29
18.578,-0.29
18.581,-0.275
18.583,-0.27
18.586,-0.285
18.589,-0.29
18.592,-0.305
18.594,-0.305
18.597,-0.295
18.6,-0.285
18.603,-0.295
18.606,-0.29
18.608,-0.305
18.611,-0.3
18.614,-0.3
18.617,-0.295
18.619,-0.295
18.622,-0.29
18.625,-0.295
18.628,-0.295
18.631,-0.29
18.633,-0.275
18.636,-0.285
18.639,-0.305
18.642,-0.305
18.644,-0.305
18.647,-0.295
18.65,-0.285
18.653,-0.275
18.656,-0.275
18.658,-0.285
18.661,-0.295
18.664,-0.29
18.667,-0.275
18.669,-0.285
18.672,-0.305
18.675,-0.3
18.678,-0.31
18.681,-0.295
18.683,-0.27
18.686,-0.29
18.689,-0.28
18.692,-0.295
18.694,-0.3
18.697,-0.295
18.7,-0.285
18.703,-0.285
18.706,-0.29
18.708,-0.305
18.711,-0.295
18.714,-0.285
18.717,-0.28
18.719,-0.285
18.722,-0.31
18.725,-0.315
18.728,-0.31
18.731,-0.3
18.733,-0.295
18.736,-0.295
18.739,-0.295
18.742,-0.3
18.744,-0.31
18.747,-0.29
18.75,-0.28
18.753,-0.27
18.756,-0.27
18.758,-0.27
18.761,-0.265
18.764,-0.25
18.767,-0.25
18.769,-0.255
18.772,-0.265
18.775,-0.26
18.778,-0.245
18.781,-0.235
18.783,-0.225
18.786,-0.25
18.789,-0.25
18.792,-0.265
18.794,-0.265
18.797,-0.245
18.8,-0.24
18.803,-0.24
18.806,-0.25
18.808,-0.275
18.811,-0.285
18.814,-0.28
18.817,-0.265
18.819,-0.27
18.822,-0.275
18.825,-0.29
18.828,-0.3
18.831,-0.285
18.833,-0.285
18.836,-0.295
18.839,-0.295
18.842,-0.3
18.844,-0.305
18.847,-0.285
18.85,-0.265
18.853,-0.295
18.856,-0.31
18.858,-0.32
18.861,-0.325
18.864,-0.315
18.867,-0.3
18.869,-0.29
18.872,-0.3
18.875,-0.315
18.878,-0.3
18.881,-0.305
18.883,-0.29
18.886,-0.285
18.889,-0.3
18.892,-0.3
18.894,-0.295
18.897,-0.28
18.9,-0.295
18.903,-0.32
18.906,-0.36
18.908,-0.395
18.911,-0.385
18.914,-0.395
18.917,-0.42
18.919,-0.445
18.922,-0.425
18.925,-0.37
18.928,-0.26
18.931,-0.14
18.933,-0.07
18.936,-0.01
18.939,0.065
18.942,0.15
18.944,0.285
18.947,0.405
18.95,0.425
18.953,0.255
18.956,-0.065
18.958,-0.35
18.961,-0.47
18.964,-0.44
18.967,-0.39
18.969,-0.36
18.972,-0.35
18.975,-0.35
18.978,-0.36
18.981,-0.35
18.983,-0.34
18.986,-0.335
18.989,-0.335
18.992,-0.335
18.994,-0.335
18.997,-0.31
19,-0.33
19.003,-0.34
19.006,-0.345
19.008,-0.355
19.011,-0.335
19.014,-0.33
19.017,-0.315
19.019,-0.335
19.022,-0.335
19.025,-0.335
19.028,-0.34
19.031,-0.315
19.033,-0.305
19.036,-0.305
19.039,-0.31
19.042,-0.315
19.044,-0.32
19.047,-0.32
19.05,-0.305
19.053,-0.325
19.056,-0.33
19.058,-0.33
19.061,-0.325
19.064,-0.325
19.067,-0.32
19.069,-0.335
19.072,-0.33
19.075,-0.345
19.078,-0.33
19.081,-0.33
19.083,-0.32
19.086,-0.33
19.089,-0.335
19.092,-0.335
19.094,-0.33
19.097,-0.315
19.1,-0.315
19.103,-0.32
19.106,-0.32
19.108,-0.335
19.111,-0.345
19.114,-0.34
19.117,-0.34
19.119,-0.33
19.122,-0.335
19.125,-0.35
19.128,-0.355
19.131,-0.335
19.133,-0.325
19.136,-0.35
19.139,-0.355
19.142,-0.36
19.144,-0.365
19.147,-0.355
19.15,-0.355
19.153,-0.355
19.156,-0.37
19.158,-0.37
19.161,-0.375
19.164,-0.385
19.167,-0.37
19.169,-0.395
19.172,-0.4
19.175,-0.405
19.178,-0.41
19.181,-0.43
19.183,-0.42
19.186,-0.44
19.189,-0.45
19.192,-0.45
19.194,-0.46
19.197,-0.46
19.2,-0.465
19.203,-0.475
19.206,-0.475
19.208,-0.49
19.211,-0.5
19.214,-0.475
19.217,-0.47
19.219,-0.47
19.222,-0.46
19.225,-0.47
19.228,-0.47
19.231,-0.45
19.233,-0.425
19.236,-0.415
19.239,-0.385
19.242,-0.395
19.244,-0.375
19.247,-0.36
19.25,-0.355
19.253,-0.335
19.256,-0.33
19.258,-0.325
19.261,-0.32
19.264,-0.31
19.267,-0.295
19.269,-0.285
19.272,-0.29
19.275,-0.3
19.278,-0.31
19.281,-0.29
19.283,-0.275
19.286,-0.265
19.289,-0.28
19.292,-0.29
19.294,-0.29
19.297,-0.275
19.3,-0.27
19.303,-0.27
19.306,-0.27
19.308,-0.285
19.311,-0.295
19.314,-0.285
19.317,-0.27
19.319,-0.285
19.322,-0.27
19.325,-0.285
19.328,-0.285
19.331,-0.28
19.333,-0.265
19.336,-0.275
19.339,-0.28
19.342,-0.29
19.344,-0.285
19.347,-0.29
19.35,-0.265
19.353,-0.27
19.356,-0.28
19.358,-0.285
19.361,-0.29
19.364,-0.28
19.367,-0.285
19.369,-0.285
19.372,-0.295
19.375,-0.305
19.378,-0.315
19.381,-0.295
19.383,-0.285
19.386,-0.285
19.389,-0.3
19.392,-0.305
19.394,-0.315
19.397,-0.3
19.4,-0.295
19.403,-0.29
19.406,-0.3
19.408,-0.3
19.411,-0.315
19.414,-0.305
19.417,-0.29
19.419,-0.295
19.422,-0.295
19.425,-0.305
19.428,-0.31
19.431,-0.3
19.433,-0.28
19.436,-0.285
19.439,-0.305
19.442,-0.29
19.444,-0.295
19.447,-0.27
19.45,-0.27
19.453,-0.29
19.456,-0.28
19.458,-0.275
19.461,-0.285
19.464,-0.28
19.467,-0.265
19.469,-0.28
19.472,-0.28
19.475,-0.285
19.478,-0.285
19.481,-0.28
19.483,-0.26
19.486,-0.27
19.489,-0.265
19.492,-0.28
19.494,-0.28
19.497,-0.28
19.5,-0.27
19.503,-0.255
19.506,-0.265
19.508,-0.28
19.511,-0.28
19.514,-0.27
19.517,-0.265
19.519,-0.265
19.522,-0.275
19.525,-0.275
19.528,-0.265
19.531,-0.25
19.533,-0.23
19.536,-0.245
19.539,-0.25
19.542,-0.255
19.544,-0.25
19.547,-0.23
19.55,-0.21
19.553,-0.205
19.556,-0.215
19.558,-0.23
19.561,-0.22
19.564,-0.22
19.567,-0.195
19.569,-0.19
19.572,-0.2
19.575,-0.2
19.578,-0.195
19.581,-0.2
19.583,-0.18
19.586,-0.21
19.589,-0.205
19.592,-0.21
19.594,-0.22
19.597,-0.21
19.6,-0.215
19.603,-0.225
19.606,-0.22
19.608,-0.225
19.611,-0.24
19.614,-0.225
19.617,-0.22
19.619,-0.225
19.622,-0.225
19.625,-0.245
19.628,-0.245
19.631,-0.235
19.633,-0.235
19.636,-0.245
19.639,-0.25
19.642,-0.25
19.644,-0.245
19.647,-0.235
19.65,-0.23
19.653,-0.23
19.656,-0.24
19.658,-0.25
19.661,-0.245
19.664,-0.245
19.667,-0.23
19.669,-0.24
19.672,-0.245
19.675,-0.245
19.678,-0.255
19.681,-0.235
19.683,-0.23
19.686,-0.24
19.689,-0.25
19.692,-0.27
19.694,-0.29
19.697,-0.31
19.7,-0.325
19.703,-0.365
19.706,-0.38
19.708,-0.36
19.711,-0.26
19.714,-0.115
19.717,0.01
19.719,0.1
19.722,0.195
19.725,0.29
19.728,0.42
19.731,0.545
19.733,0.615
19.736,0.505
19.739,0.22
19.742,-0.13
19.744,-0.35
19.747,-0.365
19.75,-0.305
19.753,-0.285
19.756,-0.28
19.758,-0.275
19.761,-0.265
19.764,-0.265
19.767,-0.255
19.769,-0.26
19.772,-0.27
19.775,-0.27
19.778,-0.275
19.781,-0.26
19.783,-0.245
19.786,-0.25
19.789,-0.265
19.792,-0.275
19.794,-0.275
19.797,-0.26
19.8,-0.25
19.803,-0.245
19.806,-0.25
19.808,-0.265
19.811,-0.26
19.814,-0.26
19.817,-0.25
19.819,-0.255
19.822,-0.26
19.825,-0.255
19.828,-0.255
19.831,-0.245
19.833,-0.24
19.836,-0.245
19.839,-0.255
19.842,-0.265
19.844,-0.255
19.847,-0.24
19.85,-0.23
19.853,-0.23
19.856,-0.23
19.858,-0.25
19.861,-0.25
19.864,-0.235
19.867,-0.245
19.869,-0.235
19.872,-0.235
19.875,-0.265
19.878,-0.245
19.881,-0.24
19.883,-0.225
19.886,-0.245
19.889,-0.235
19.892,-0.25
19.894,-0.26
19.897,-0.25
19.9,-0.23
19.903,-0.24
19.906,-0.24
19.908,-0.25
19.911,-0.26
19.914,-0.255
19.917,-0.25
19.919,-0.265
19.922,-0.26
19.925,-0.28
19.928,-0.28
19.931,-0.27
19.933,-0.27
19.936,-0.275
19.939,-0.285
19.942,-0.305
19.944,-0.3
19.947,-0.305
19.95,-0.29
19.953,-0.305
19.956,-0.32
19.958,-0.34
19.961,-0.35
19.964,-0.335
19.967,-0.33
19.969,-0.345
19.972,-0.365
19.975,-0.38
19.978,-0.385
19.981,-0.385
19.983,-0.37
19.986,-0.385
19.989,-0.4
19.992,-0.4
19.994,-0.42
19.997,-0.4
20,-0.39
20.003,-0.395
20.006,-0.39
20.008,-0.395
20.011,-0.375
20.014,-0.355
20.017,-0.33
20.019,-0.325
20.022,-0.32
20.025,-0.305
20.028,-0.28
20.031,-0.265
20.033,-0.245
20.036,-0.235
20.039,-0.23
20.042,-0.235
20.044,-0.22
20.047,-0.205
20.05,-0.19
20.053,-0.18
20.056,-0.19
20.058,-0.195
20.061,-0.19
20.064,-0.185
20.067,-0.17
20.069,-0.17
20.072,-0.185
20.075,-0.185
20.078,-0.185
20.081,-0.18
20.083,-0.17
20.086,-0.18
20.089,-0.18
20.092,-0.19
20.094,-0.185
20.097,-0.18
20.1,-0.16
20.103,-0.16
20.106,-0.175
20.108,-0.185
20.111,-0.195
20.114,-0.19
20.117,-0.175
20.119,-0.18
20.122,-0.2
20.125,-0.195
20.128,-0.195
20.131,-0.18
20.133,-0.18
20.136,-0.18
20.139,-0.185
20.142,-0.22
20.144,-0.2
20.147,-0.2
20.15,-0.19
20.153,-0.19
20.156,-0.2
20.158,-0.22
20.161,-0.215
20.164,-0.205
20.167,-0.19
20.169,-0.2
20.172,-0.205
20.175,-0.215
20.178,-0.22
20.181,-0.21
20.183,-0.2
20.186,-0.21
20.189,-0.21
20.192,-0.215
20.194,-0.225
20.197,-0.225
20.2,-0.21
20.203,-0.21
20.206,-0.22
20.208,-0.22
20.211,-0.225
20.214,-0.22
20.217,-0.205
20.219,-0.21
20.222,-0.22
20.225,-0.24
20.228,-0.24
20.231,-0.2
20.233,-0.195
20.236,-0.2
20.239,-0.205
20.242,-0.21
20.244,-0.22
20.247,-0.21
20.25,-0.185
20.253,-0.2
20.256,-0.2
20.258,-0.22
20.261,-0.21
20.264,-0.21
20.267,-0.2
20.269,-0.195
20.272,-0.205
20.275,-0.19
20.278,-0.215
20.281,-0.2
20.283,-0.19
20.286,-0.2
20.289,-0.21
20.292,-0.21
20.294,-0.205
20.297,-0.195
20.3,-0.175
20.303,-0.185
20.306,-0.21
20.308,-0.21
20.311,-0.215
20.314,-0.21
20.317,-0.195
20.319,-0.2
20.322,-0.205
20.325,-0.21
20.328,-0.205
20.331,-0.195
20.333,-0.18
20.336,-0.18
20.339,-0.185
20.342,-0.195
20.344,-0.195
20.347,-0.165
20.35,-0.155
20.353,-0.14
20.356,-0.17
20.358,-0.175
20.361,-0.165
20.364,-0.165
20.367,-0.15
20.369,-0.14
20.372,-0.13
20.375,-0.14
20.378,-0.155
20.381,-0.145
20.383,-0.135
20.386,-0.145
20.389,-0.14
20.392,-0.16
20.394,-0.16
20.397,-0.175
20.4,-0.16
20.403,-0.165
20.406,-0.175
20.408,-0.185
20.411,-0.195
20.414,-0.175
20.417,-0.18
20.419,-0.185
20.422,-0.2
20.425,-0.21
20.428,-0.205
20.431,-0.21
20.433,-0.18
20.436,-0.19
20.439,-0.205
20.442,-0.215
20.444,-0.21
20.447,-0.215
20.45,-0.19
20.453,-0.185
20.456,-0.2
20.458,-0.205
20.461,-0.21
20.464,-0.2
20.467,-0.2
20.469,-0.2
20.472,-0.225
20.475,-0.23
20.478,-0.255
20.481,-0.275
20.483,-0.3
20.486,-0.34
20.489,-0.37
20.492,-0.375
20.494,-0.3
20.497,-0.16
20.5,-0.02
20.503,0.085
20.506,0.16
20.508,0.2
20.511,0.26
20.514,0.34
20.517,0.435
20.519,0.5
20.522,0.57
20.525,0.655
20.528,0.755
20.531,0.79
20.533,0.645
20.536,0.32
20.539,-0.065
20.542,-0.255
20.544,-0.26
20.547,-0.23
20.55,-0.22
20.553,-0.23
20.556,-0.225
20.558,-0.24
20.561,-0.255
20.564,-0.25
20.567,-0.245
20.569,-0.245
20.572,-0.27
20.575,-0.26
20.578,-0.27
20.581,-0.25
20.583,-0.25
20.586,-0.255
20.589,-0.26
20.592,-0.27
20.594,-0.27
20.597,-0.25
20.6,-0.26
20.603,-0.255
20.606,-0.255
20.608,-0.275
20.611,-0.275
20.614,-0.275
20.617,-0.245
20.619,-0.245
20.622,-0.25
20.625,-0.265
20.628,-0.27
20.631,-0.26
20.633,-0.255
20.636,-0.26
20.639,-0.27
20.642,-0.27
20.644,-0.265
20.647,-0.255
20.65,-0.26
20.653,-0.25
20.656,-0.25
20.658,-0.27
20.661,-0.275
20.664,-0.26
20.667,-0.255
20.669,-0.27
20.672,-0.255
20.675,-0.27
20.678,-0.27
20.681,-0.275
20.683,-0.265
20.686,-0.26
20.689,-0.28
20.692,-0.27
20.694,-0.275
20.697,-0.27
20.7,-0.27
20.703,-0.28
20.706,-0.295
20.708,-0.3
20.711,-0.3
20.714,-0.295
20.717,-0.295
20.719,-0.29
20.722,-0.315
20.725,-0.335
20.728,-0.325
20.731,-0.325
20.733,-0.31
20.736,-0.32
20.739,-0.345
20.742,-0.36
20.744,-0.365
20.747,-0.365
20.75,-0.35
20.753,-0.37
20.756,-0.375
20.758,-0.39
20.761,-0.405
20.764,-0.405
20.767,-0.4
20.769,-0.415
20.772,-0.42
20.775,-0.425
20.778,-0.43
20.781,-0.425
20.783,-0.415
20.786,-0.425
20.789,-0.43
20.792,-0.425
20.794,-0.43
20.797,-0.395
20.8,-0.38
20.803,-0.375
20.806,-0.37
20.808,-0.375
20.811,-0.35
20.814,-0.325
20.817,-0.3
20.819,-0.295
20.822,-0.28
20.825,-0.28
20.828,-0.275
20.831,-0.26
20.833,-0.245
20.836,-0.265
20.839,-0.255
20.842,-0.255
20.844,-0.255
20.847,-0.225
20.85,-0.215
20.853,-0.22
20.856,-0.21
20.858,-0.215
20.861,-0.22
20.864,-0.215
20.867,-0.2
20.869,-0.195
20.872,-0.21
20.875,-0.21
20.878,-0.215
20.881,-0.215
20.883,-0.2
20.886,-0.205
20.889,-0.215
20.892,-0.22
20.894,-0.23
20.897,-0.2
20.9,-0.21
20.903,-0.215
20.906,-0.225
20.908,-0.22
20.911,-0.225
20.914,-0.215
20.917,-0.21
20.919,-0.2
20.922,-0.235
20.925,-0.225
20.928,-0.22
20.931,-0.215
20.933,-0.21
20.936,-0.205
20.939,-0.235
20.942,-0.235
20.944,-0.255
20.947,-0.225
20.95,-0.225
20.953,-0.22
20.956,-0.23
20.958,-0.25
20.961,-0.26
20.964,-0.24
20.967,-0.235
20.969,-0.24
20.972,-0.23
20.975,-0.245
20.978,-0.245
20.981,-0.24
20.983,-0.235
20.986,-0.235
20.989,-0.25
20.992,-0.25
20.994,-0.25
20.997,-0.225
21,-0.225
21.003,-0.235
21.006,-0.24
21.008,-0.25
21.011,-0.26
21.014,-0.23
21.017,-0.215
21.019,-0.22
21.022,-0.235
21.025,-0.24
21.028,-0.255
21.031,-0.24
21.033,-0.225
21.036,-0.22
21.039,-0.23
21.042,-0.235
21.044,-0.23
21.047,-0.225
21.05,-0.215
21.053,-0.21
21.056,-0.215
21.058,-0.225
21.061,-0.225
21.064,-0.21
21.067,-0.21
21.069,-0.215
21.072,-0.22
21.075,-0.22
21.078,-0.225
21.081,-0.215
21.083,-0.2
21.086,-0.22
21.089,-0.23
21.092,-0.23
21.094,-0.225
21.097,-0.21
21.1,-0.205
21.103,-0.21
21.106,-0.205
21.108,-0.215
21.111,-0.21
21.114,-0.195
21.117,-0.175
21.119,-0.165
21.122,-0.19
21.125,-0.19
21.128,-0.185
21.131,-0.18
21.133,-0.18
21.136,-0.175
21.139,-0.185
21.142,-0.19
21.144,-0.195
21.147,-0.175
21.15,-0.155
21.153,-0.15
21.156,-0.155
21.158,-0.17
21.161,-0.175
21.164,-0.165
21.167,-0.155
21.169,-0.16
21.172,-0.17
21.175,-0.18
21.178,-0.19
21.181,-0.185
21.183,-0.17
21.186,-0.19
21.189,-0.205
21.192,-0.21
21.194,-0.22
21.197,-0.215
21.2,-0.21
21.203,-0.215
21.206,-0.225
21.208,-0.235
21.211,-0.225
21.214,-0.225
21.217,-0.215
21.219,-0.21
21.222,-0.22
21.225,-0.225
21.228,-0.225
21.231,-0.235
21.233,-0.225
21.236,-0.235
21.239,-0.225
21.242,-0.235
21.244,-0.24
21.247,-0.235
21.25,-0.225
21.253,-0.24
21.256,-0.26
21.258,-0.285
21.261,-0.31
21.264,-0.325
21.267,-0.355
21.269,-0.39
21.272,-0.405
21.275,-0.36
21.278,-0.265
21.281,-0.14
21.283,-0.02
21.286,0.055
21.289,0.13
21.292,0.245
21.294,0.365
21.297,0.475
21.3,0.53
21.303,0.405
21.306,0.105
21.308,-0.21
21.311,-0.355
21.314,-0.355
21.317,-0.29
21.319,-0.285
21.322,-0.28
21.325,-0.28
21.328,-0.29
21.331,-0.29
21.333,-0.275
21.336,-0.275
21.339,-0.28
21.342,-0.29
21.344,-0.285
21.347,-0.29
21.35,-0.29
21.353,-0.285
21.356,-0.29
21.358,-0.305
21.361,-0.305
21.364,-0.3
21.367,-0.28
21.369,-0.3
21.372,-0.295
21.375,-0.295
21.378,-0.285
21.381,-0.275
21.383,-0.265
21.386,-0.28
21.389,-0.3
21.392,-0.3
21.394,-0.3
21.397,-0.295
21.4,-0.27
21.403,-0.285
21.406,-0.285
21.408,-0.29
21.411,-0.295
21.414,-0.29
21.417,-0.285
21.419,-0.275
21.422,-0.295
21.425,-0.29
21.428,-0.3
21.431,-0.295
21.433,-0.295
21.436,-0.285
21.439,-0.29
21.442,-0.285
21.444,-0.295
21.447,-0.285
21.45,-0.275
21.453,-0.29
21.456,-0.28
21.458,-0.29
21.461,-0.305
21.464,-0.29
21.467,-0.275
21.469,-0.29
21.472,-0.29
21.475,-0.295
21.478,-0.305
21.481,-0.295
21.483,-0.295
21.486,-0.3
21.489,-0.32
21.492,-0.325
21.494,-0.32
21.497,-0.31
21.5,-0.3
21.503,-0.32
21.506,-0.335
21.508,-0.35
21.511,-0.35
21.514,-0.325
21.517,-0.33
21.519,-0.34
21.522,-0.345
21.525,-0.36
21.528,-0.38
21.531,-0.38
21.533,-0.37
21.536,-0.375
21.539,-0.38
21.542,-0.4
21.544,-0.405
21.547,-0.4
21.55,-0.4
21.553,-0.415
21.556,-0.425
21.558,-0.43
21.561,-0.445
21.564,-0.435
21.567,-0.42
21.569,-0.44
21.572,-0.44
21.575,-0.455
21.578,-0.465
21.581,-0.43
21.583,-0.405
21.586,-0.405
21.589,-0.395
21.592,-0.41
21.594,-0.395
21.597,-0.355
21.6,-0.33
21.603,-0.32
21.606,-0.315
21.608,-0.32
21.611,-0.31
21.614,-0.295
21.617,-0.285
21.619,-0.29
21.622,-0.28
21.625,-0.28
21.628,-0.28
21.631,-0.265
21.633,-0.26
21.636,-0.255
21.639,-0.255
21.642,-0.265
21.644,-0.265
21.647,-0.265
21.65,-0.255
21.653,-0.25
21.656,-0.255
21.658,-0.26
21.661,-0.26
21.664,-0.25
21.667,-0.245
21.669,-0.255
21.672,-0.25
21.675,-0.265
21.678,-0.26
21.681,-0.245
21.683,-0.25
21.686,-0.26
21.689,-0.27
21.692,-0.265
21.694,-0.265
21.697,-0.255
21.7,-0.24
21.703,-0.26
21.706,-0.27
21.708,-0.28
21.711,-0.29
21.714,-0.27
21.717,-0.26
21.719,-0.265
21.722,-0.275
21.725,-0.285
21.728,-0.295
21.731,-0.285
21.733,-0.285
21.736,-0.28
21.739,-0.29
21.742,-0.295
21.744,-0.29
21.747,-0.28
21.75,-0.265
21.753,-0.285
21.756,-0.285
21.758,-0.3
21.761,-0.305
21.764,-0.295
21.767,-0.28
21.769,-0.28
21.772,-0.29
21.775,-0.305
21.778,-0.305
21.781,-0.295
21.783,-0.28
21.786,-0.295
21.789,-0.295
21.792,-0.305
21.794,-0.305
21.797,-0.305
21.8,-0.28
21.803,-0.29
21.806,-0.295
21.808,-0.3
21.811,-0.31
21.814,-0.295
21.817,-0.285
21.819,-0.29
21.822,-0.305
21.825,-0.29
21.828,-0.295
21.831,-0.275
21.833,-0.27
21.836,-0.285
21.839,-0.3
21.842,-0.3
21.844,-0.31
21.847,-0.3
21.85,-0.285
21.853,-0.285
21.856,-0.29
21.858,-0.295
21.861,-0.3
21.864,-0.29
21.867,-0.285
21.869,-0.285
21.872,-0.29
21.875,-0.295
21.878,-0.295
21.881,-0.29
21.883,-0.28
21.886,-0.29
21.889,-0.27
21.892,-0.29
21.894,-0.275
21.897,-0.26
21.9,-0.255
21.903,-0.26
21.906,-0.28
21.908,-0.28
21.911,-0.285
21.914,-0.27
21.917,-0.24
21.919,-0.23
21.922,-0.235
21.925,-0.245
21.928,-0.24
21.931,-0.23
21.933,-0.23
21.936,-0.23
21.939,-0.24
21.942,-0.265
21.944,-0.26
21.947,-0.245
21.95,-0.25
21.953,-0.265
21.956,-0.295
21.958,-0.29
21.961,-0.295
21.964,-0.28
21.967,-0.285
21.969,-0.28
21.972,-0.29
21.975,-0.32
21.978,-0.31
21.981,-0.305
21.983,-0.295
21.986,-0.295
21.989,-0.295
21.992,-0.295
21.994,-0.3
21.997,-0.3
22,-0.29
22.003,-0.305
22.006,-0.305
22.008,-0.32
22.011,-0.305
22.014,-0.295
22.017,-0.29
22.019,-0.285
22.022,-0.29
22.025,-0.305
22.028,-0.305
22.031,-0.3
22.033,-0.29
22.036,-0.315
22.039,-0.315
22.042,-0.33
22.044,-0.345
22.047,-0.355
22.05,-0.375
22.053,-0.4
22.056,-0.43
22.058,-0.44
22.061,-0.405
22.064,-0.32
22.067,-0.215
22.069,-0.115
22.072,-0.055
22.075,0
22.078,0.085
22.081,0.225
22.083,0.355
22.086,0.43
22.089,0.355
22.092,0.06
22.094,-0.275
22.097,-0.465
22.1,-0.465
22.103,-0.43
22.106,-0.385
22.108,-0.375
22.111,-0.36
22.114,-0.35
22.117,-0.355
22.119,-0.35
22.122,-0.355
22.125,-0.35
22.128,-0.355
22.131,-0.345
22.133,-0.33
22.136,-0.33
22.139,-0.345
22.142,-0.345
22.144,-0.35
22.147,-0.335
22.15,-0.315
22.153,-0.325
22.156,-0.325
22.158,-0.335
22.161,-0.345
22.164,-0.32
22.167,-0.325
22.169,-0.33
22.172,-0.32
22.175,-0.345
22.178,-0.34
22.181,-0.33
22.183,-0.315
22.186,-0.325
22.189,-0.335
22.192,-0.34
22.194,-0.34
22.197,-0.315
22.2,-0.31
22.203,-0.325
22.206,-0.34
22.208,-0.34
22.211,-0.34
22.214,-0.33
22.217,-0.32
22.219,-0.315
22.222,-0.31
22.225,-0.325
22.228,-0.33
22.231,-0.315
22.233,-0.31
22.236,-0.31
22.239,-0.34
22.242,-0.345
22.244,-0.345
22.247,-0.335
22.25,-0.32
22.253,-0.32
22.256,-0.31
22.258,-0.325
22.261,-0.33
22.264,-0.33
22.267,-0.325
22.269,-0.33
22.272,-0.34
22.275,-0.335
22.278,-0.34
22.281,-0.335
22.283,-0.32
22.286,-0.325
22.289,-0.34
22.292,-0.355
22.294,-0.36
22.297,-0.35
22.3,-0.345
22.303,-0.355
22.306,-0.37
22.308,-0.365
22.311,-0.39
22.314,-0.375
22.317,-0.37
22.319,-0.375
22.322,-0.39
22.325,-0.415
22.328,-0.415
22.331,-0.41
22.333,-0.41
22.336,-0.425
22.339,-0.44
22.342,-0.45
22.344,-0.455
22.347,-0.44
22.35,-0.445
22.353,-0.45
22.356,-0.465
22.358,-0.475
22.361,-0.47
22.364,-0.46
22.367,-0.44
22.369,-0.445
22.372,-0.44
22.375,-0.445
22.378,-0.43
22.381,-0.4
22.383,-0.39
22.386,-0.37
22.389,-0.365
22.392,-0.355
22.394,-0.355
22.397,-0.335
22.4,-0.315
22.403,-0.305
22.406,-0.3
22.408,-0.285
22.411,-0.285
22.414,-0.27
22.417,-0.255
22.419,-0.25
22.422,-0.26
22.425,-0.265
22.428,-0.265
22.431,-0.255
22.433,-0.22
22.436,-0.23
22.439,-0.235
22.442,-0.245
22.444,-0.24
22.447,-0.22
22.45,-0.21
22.453,-0.215
22.456,-0.235
22.458,-0.245
22.461,-0.245
22.464,-0.23
22.467,-0.225
22.469,-0.22
22.472,-0.23
22.475,-0.235
22.478,-0.25
22.481,-0.24
22.483,-0.225
22.486,-0.225
22.489,-0.22
22.492,-0.235
22.494,-0.235
22.497,-0.225
22.5,-0.22
22.503,-0.22
22.506,-0.225
22.508,-0.24
22.511,-0.24
22.514,-0.225
22.517,-0.215
22.519,-0.23
22.522,-0.245
22.525,-0.255
22.528,-0.24
22.531,-0.235
22.533,-0.235
22.536,-0.23
22.539,-0.25
22.542,-0.25
22.544,-0.25
22.547,-0.255
22.55,-0.235
22.553,-0.23
22.556,-0.25
22.558,-0.255
22.561,-0.26
22.564,-0.25
22.567,-0.245
22.569,-0.25
22.572,-0.25
22.575,-0.265
22.578,-0.25
22.581,-0.245
22.583,-0.245
22.586,-0.25
22.589,-0.255
22.592,-0.26
22.594,-0.265
22.597,-0.255
22.6,-0.24
22.603,-0.24
22.606,-0.24
22.608,-0.255
22.611,-0.245
22.614,-0.24
22.617,-0.235
22.619,-0.245
22.622,-0.24
22.625,-0.245
22.628,-0.25
22.631,-0.235
22.633,-0.23
22.636,-0.24
22.639,-0.235
22.642,-0.25
22.644,-0.245
22.647,-0.245
22.65,-0.23
22.653,-0.23
22.656,-0.235
22.658,-0.245
22.661,-0.245
22.664,-0.235
22.667,-0.215
22.669,-0.22
22.672,-0.24
22.675,-0.24
22.678,-0.235
22.681,-0.24
22.683,-0.235
22.686,-0.23
22.689,-0.23
22.692,-0.24
22.694,-0.245
22.697,-0.24
22.7,-0.22
22.703,-0.225
22.706,-0.23
22.708,-0.235
22.711,-0.22
22.714,-0.205
22.717,-0.19
22.719,-0.195
22.722,-0.185
22.725,-0.2
22.728,-0.195
22.731,-0.205
22.733,-0.19
22.736,-0.2
22.739,-0.19
22.742,-0.185
22.744,-0.18
22.747,-0.16
22.75,-0.165
22.753,-0.165
22.756,-0.17
22.758,-0.18
22.761,-0.175
22.764,-0.17
22.767,-0.17
22.769,-0.175
22.772,-0.19
22.775,-0.21
22.778,-0.21
22.781,-0.2
22.783,-0.2
22.786,-0.2
22.789,-0.215
22.792,-0.22
22.794,-0.225
22.797,-0.22
22.8,-0.205
22.803,-0.22
22.806,-0.22
22.808,-0.23
22.811,-0.225
22.814,-0.215
22.817,-0.21
22.819,-0.225
22.822,-0.23
22.825,-0.245
22.828,-0.225
22.831,-0.215
22.833,-0.21
22.836,-0.215
22.839,-0.21
22.842,-0.225
22.844,-0.23
22.847,-0.235
22.85,-0.235
22.853,-0.265
22.856,-0.295
22.858,-0.335
22.861,-0.385
22.864,-0.385
22.867,-0.37
22.869,-0.32
22.872,-0.215
22.875,-0.1
22.878,0
22.881,0.09
22.883,0.17
22.886,0.235
22.889,0.305
22.892,0.42
22.894,0.53
22.897,0.665
22.9,0.75
22.903,0.7
22.906,0.44
22.908,0.07
22.911,-0.22
22.914,-0.285
22.917,-0.255
22.919,-0.235
22.922,-0.245
22.925,-0.255
22.928,-0.255
22.931,-0.245
22.933,-0.245
22.936,-0.25
22.939,-0.26
22.942,-0.265
22.944,-0.27
22.947,-0.26
22.95,-0.25
22.953,-0.25
22.956,-0.26
22.958,-0.265
22.961,-0.27
22.964,-0.27
22.967,-0.25
22.969,-0.26
22.972,-0.26
22.975,-0.26
22.978,-0.265
22.981,-0.255
22.983,-0.26
22.986,-0.25
22.989,-0.26
22.992,-0.265
22.994,-0.265
22.997,-0.26
23,-0.265
23.003,-0.255
23.006,-0.26
23.008,-0.275
23.011,-0.265
23.014,-0.255
23.017,-0.24
23.019,-0.245
23.022,-0.245
23.025,-0.26
23.028,-0.26
23.031,-0.265
23.033,-0.25
23.036,-0.25
23.039,-0.27
23.042,-0.265
23.044,-0.26
23.047,-0.255
23.05,-0.25
23.053,-0.26
23.056,-0.265
23.058,-0.275
23.061,-0.275
23.064,-0.265
23.067,-0.26
23.069,-0.255
23.072,-0.275
23.075,-0.275
23.078,-0.275
23.081,-0.27
23.083,-0.275
23.086,-0.27
23.089,-0.275
23.092,-0.3
23.094,-0.295
23.097,-0.29
23.1,-0.285
23.103,-0.29
23.106,-0.3
23.108,-0.33
23.111,-0.325
23.114,-0.31
23.117,-0.305
23.119,-0.325
23.122,-0.335
23.125,-0.36
23.128,-0.355
23.131,-0.35
23.133,-0.35
23.136,-0.36
23.139,-0.36
23.142,-0.385
23.144,-0.395
23.147,-0.39
23.15,-0.39
23.153,-0.4
23.156,-0.4
23.158,-0.425
23.161,-0.41
23.164,-0.42
23.167,-0.405
23.169,-0.405
23.172,-0.41
23.175,-0.42
23.178,-0.41
23.181,-0.405
23.183,-0.38
23.186,-0.38
23.189,-0.375
23.192,-0.38
23.194,-0.36
23.197,-0.345
23.2,-0.33
23.203,-0.34
23.206,-0.32
23.208,-0.315
23.211,-0.3
23.214,-0.28
23.217,-0.25
23.219,-0.255
23.222,-0.24
23.225,-0.24
23.228,-0.235
23.231,-0.23
23.233,-0.2
23.236,-0.195
23.239,-0.205
23.242,-0.21
23.244,-0.21
23.247,-0.21
23.25,-0.185
23.253,-0.19
23.256,-0.195
23.258,-0.19
23.261,-0.205
23.264,-0.21
23.267,-0.19
23.269,-0.2
23.272,-0.205
23.275,-0.21
23.278,-0.2
23.281,-0.195
23.283,-0.185
23.286,-0.19
23.289,-0.19
23.292,-0.21
23.294,-0.215
23.297,-0.2
23.3,-0.2
23.303,-0.2
23.306,-0.2
23.308,-0.22
23.311,-0.205
23.314,-0.215
23.317,-0.2
23.319,-0.205
23.322,-0.22
23.325,-0.22
23.328,-0.225
23.331,-0.22
23.333,-0.205
23.336,-0.195
23.339,-0.215
23.342,-0.23
23.344,-0.23
23.347,-0.225
23.35,-0.205
23.353,-0.225
23.356,-0.225
23.358,-0.23
23.361,-0.23
23.364,-0.215
23.367,-0.21
23.369,-0.22
23.372,-0.235
23.375,-0.24
23.378,-0.255
23.381,-0.235
23.383,-0.225
23.386,-0.235
23.389,-0.24
23.392,-0.245
23.394,-0.25
23.397,-0.245
23.4,-0.22
23.403,-0.225
23.406,-0.225
23.408,-0.25
23.411,-0.245
23.414,-0.24
23.417,-0.23
23.419,-0.24
23.422,-0.24
23.425,-0.25
23.428,-0.24
23.431,-0.235
23.433,-0.23
23.436,-0.235
23.439,-0.23
23.442,-0.235
23.444,-0.24
23.447,-0.23
23.45,-0.21
23.453,-0.22
23.456,-0.225
23.458,-0.235
23.461,-0.23
23.464,-0.225
23.467,-0.21
23.469,-0.21
23.472,-0.215
23.475,-0.22
23.478,-0.225
23.481,-0.225
23.483,-0.21
23.486,-0.215
23.489,-0.225
23.492,-0.225
23.494,-0.22
23.497,-0.215
23.5,-0.205
23.503,-0.215
23.506,-0.22
23.508,-0.24
23.511,-0.235
23.514,-0.23
23.517,-0.21
23.519,-0.21
23.522,-0.21
23.525,-0.215
23.528,-0.21
23.531,-0.19
23.533,-0.195
23.536,-0.185
23.539,-0.185
23.542,-0.19
23.544,-0.19
23.547,-0.18
23.55,-0.175
23.553,-0.175
23.556,-0.175
23.558,-0.175
23.561,-0.16
23.564,-0.155
23.567,-0.15
23.569,-0.145
23.572,-0.165
23.575,-0.16
23.578,-0.185
23.581,-0.18
23.583,-0.17
23.586,-0.175
23.589,-0.175
23.592,-0.19
23.594,-0.185
23.597,-0.2
23.6,-0.19
23.603,-0.195
23.606,-0.19
23.608,-0.215
23.611,-0.22
23.614,-0.205
23.617,-0.205
23.619,-0.21
23.622,-0.215
23.625,-0.215
23.628,-0.22
23.631,-0.22
23.633,-0.215
23.636,-0.21
23.639,-0.215
23.642,-0.23
23.644,-0.215
23.647,-0.205
23.65,-0.205
23.653,-0.2
23.656,-0.22
23.658,-0.23
23.661,-0.23
23.664,-0.215
23.667,-0.215
23.669,-0.22
23.672,-0.25
23.675,-0.28
23.678,-0.305
23.681,-0.325
23.683,-0.34
23.686,-0.37
23.689,-0.36
23.692,-0.275
23.694,-0.155
23.697,0
23.7,0.115
23.703,0.22
23.706,0.34
23.708,0.455
23.711,0.58
23.714,0.675
23.717,0.635
23.719,0.38
23.722,0.005
23.725,-0.255
23.728,-0.305
23.731,-0.26
23.733,-0.255
23.736,-0.25
23.739,-0.26
23.742,-0.255
23.744,-0.26
23.747,-0.26
23.75,-0.25
23.753,-0.245
23.756,-0.265
23.758,-0.275
23.761,-0.285
23.764,-0.26
23.767,-0.245
23.769,-0.255
23.772,-0.255
23.775,-0.26
23.778,-0.275
23.781,-0.26
23.783,-0.25
23.786,-0.26
23.789,-0.255
23.792,-0.265
23.794,-0.265
23.797,-0.265
23.8,-0.255
23.803,-0.25
23.806,-0.26
23.808,-0.28
23.811,-0.265
23.814,-0.255
23.817,-0.24
23.819,-0.25
23.822,-0.26
23.825,-0.265
23.828,-0.265
23.831,-0.265
23.833,-0.255
23.836,-0.26
23.839,-0.25
23.842,-0.27
23.844,-0.26
23.847,-0.255
23.85,-0.245
23.853,-0.245
23.856,-0.25
23.858,-0.27
23.861,-0.26
23.864,-0.25
23.867,-0.235
23.869,-0.255
23.872,-0.25
23.875,-0.275
23.878,-0.27
23.881,-0.265
23.883,-0.255
23.886,-0.255
23.889,-0.265
23.892,-0.27
23.894,-0.285
23.897,-0.285
23.9,-0.26
23.903,-0.275
23.906,-0.285
23.908,-0.29
23.911,-0.285
23.914,-0.28
23.917,-0.27
23.919,-0.285
23.922,-0.29
23.925,-0.3
23.928,-0.32
23.931,-0.315
23.933,-0.31
23.936,-0.315
23.939,-0.325
23.942,-0.33
23.944,-0.345
23.947,-0.345
23.95,-0.34
23.953,-0.345
23.956,-0.36
23.958,-0.365
23.961,-0.37
23.964,-0.375
23.967,-0.37
23.969,-0.375
23.972,-0.395
23.975,-0.405
23.978,-0.4
23.981,-0.4
23.983,-0.395
23.986,-0.405
23.989,-0.405
23.992,-0.415
23.994,-0.42
23.997,-0.4
24,-0.37
24.003,-0.375
24.006,-0.37
24.008,-0.365
24.011,-0.335
24.014,-0.325
24.017,-0.31
24.019,-0.295
24.022,-0.295
24.025,-0.285
24.028,-0.26
24.031,-0.245
24.033,-0.23
24.036,-0.225
24.039,-0.235
24.042,-0.23
24.044,-0.22
24.047,-0.2
24.05,-0.19
24.053,-0.195
24.056,-0.2
24.058,-0.215
24.061,-0.215
24.064,-0.2
24.067,-0.185
24.069,-0.2
24.072,-0.195
24.075,-0.21
24.078,-0.205
24.081,-0.195
24.083,-0.19
24.086,-0.2
24.089,-0.21
24.092,-0.21
24.094,-0.2
24.097,-0.2
24.1,-0.205
24.103,-0.195
24.106,-0.19
24.108,-0.205
24.111,-0.205
24.114,-0.205
24.117,-0.2
24.119,-0.21
24.122,-0.225
24.125,-0.22
24.128,-0.225
24.131,-0.205
24.133,-0.21
24.136,-0.215
24.139,-0.225
24.142,-0.235
24.144,-0.24
24.147,-0.235
24.15,-0.215
24.153,-0.22
24.156,-0.22
24.158,-0.235
24.161,-0.24
24.164,-0.23
24.167,-0.225
24.169,-0.24
24.172,-0.225
24.175,-0.24
24.178,-0.24
24.181,-0.225
24.183,-0.22
24.186,-0.225
24.189,-0.24
24.192,-0.245
24.194,-0.25
24.197,-0.24
24.2,-0.235
24.203,-0.23
24.206,-0.24
24.208,-0.255
24.211,-0.25
24.214,-0.24
24.217,-0.23
24.219,-0.225
24.222,-0.23
24.225,-0.245
24.228,-0.245
24.231,-0.235
24.233,-0.23
24.236,-0.235
24.239,-0.235
24.242,-0.24
24.244,-0.235
24.247,-0.235
24.25,-0.22
24.253,-0.22
24.256,-0.235
24.258,-0.245
24.261,-0.245
24.264,-0.245
24.267,-0.22
24.269,-0.225
24.272,-0.235
24.275,-0.235
24.278,-0.225
24.281,-0.235
24.283,-0.215
24.286,-0.215
24.289,-0.225
24.292,-0.235
24.294,-0.245
24.297,-0.235
24.3,-0.21
24.303,-0.22
24.306,-0.23
24.308,-0.23
24.311,-0.235
24.314,-0.23
24.317,-0.22
24.319,-0.23
24.322,-0.23
24.325,-0.25
24.328,-0.245
24.331,-0.24
24.333,-0.225
24.336,-0.22
24.339,-0.22
24.342,-0.215
24.344,-0.225
24.347,-0.205
24.35,-0.2
24.353,-0.2
24.356,-0.21
24.358,-0.21
24.361,-0.21
24.364,-0.19
24.367,-0.175
24.369,-0.175
24.372,-0.195
24.375,-0.19
24.378,-0.19
24.381,-0.17
24.383,-0.17
24.386,-0.16
24.389,-0.17
24.392,-0.185
24.394,-0.185
24.397,-0.18
24.4,-0.18
24.403,-0.175
24.406,-0.185
24.408,-0.21
24.411,-0.215
24.414,-0.21
24.417,-0.2
24.419,-0.2
24.422,-0.205
24.425,-0.215
24.428,-0.235
24.431,-0.23
24.433,-0.225
24.436,-0.235
24.439,-0.24
24.442,-0.25
24.444,-0.255
24.447,-0.25
24.45,-0.245
24.453,-0.245
24.456,-0.25
24.458,-0.26
24.461,-0.27
24.464,-0.26
24.467,-0.24
24.469,-0.245
24.472,-0.255
24.475,-0.26
24.478,-0.26
24.481,-0.26
24.483,-0.25
24.486,-0.245
24.489,-0.255
24.492,-0.27
24.494,-0.265
24.497,-0.285
24.5,-0.29
24.503,-0.315
24.506,-0.345
24.508,-0.37
24.511,-0.405
24.514,-0.415
24.517,-0.385
24.519,-0.31
24.522,-0.22
24.525,-0.11
24.528,-0.035
24.531,0.045
24.533,0.145
24.536,0.24
24.539,0.37
24.542,0.44
24.544,0.405
24.547,0.215
24.55,-0.08
24.553,-0.33
24.556,-0.41
24.558,-0.39
24.561,-0.34
24.564,-0.315
24.567,-0.305
24.569,-0.315
24.572,-0.31
24.575,-0.315
24.578,-0.32
24.581,-0.315
24.583,-0.3
24.586,-0.3
24.589,-0.32
24.592,-0.32
24.594,-0.315
24.597,-0.31
24.6,-0.29
24.603,-0.295
24.606,-0.29
24.608,-0.315
24.611,-0.305
24.614,-0.31
24.617,-0.3
24.619,-0.295
24.622,-0.31
24.625,-0.32
24.628,-0.32
24.631,-0.315
24.633,-0.3
24.636,-0.3
24.639,-0.31
24.642,-0.325
24.644,-0.315
24.647,-0.32
24.65,-0.295
24.653,-0.31
24.656,-0.29
24.658,-0.305
24.661,-0.31
24.664,-0.305
24.667,-0.285
24.669,-0.305
24.672,-0.305
24.675,-0.325
24.678,-0.315
24.681,-0.3
24.683,-0.29
24.686,-0.3
24.689,-0.315
24.692,-0.325
24.694,-0.335
24.697,-0.32
24.7,-0.295
24.703,-0.31
24.706,-0.31
24.708,-0.305
24.711,-0.32
24.714,-0.32
24.717,-0.31
24.719,-0.31
24.722,-0.305
24.725,-0.32
24.728,-0.32
24.731,-0.32
24.733,-0.31
24.736,-0.315
24.739,-0.32
24.742,-0.33
24.744,-0.325
24.747,-0.315
24.75,-0.315
24.753,-0.325
24.756,-0.325
24.758,-0.325
24.761,-0.34
24.764,-0.34
24.767,-0.345
24.769,-0.345
24.772,-0.355
24.775,-0.37
24.778,-0.365
24.781,-0.375
24.783,-0.365
24.786,-0.365
24.789,-0.38
24.792,-0.395
24.794,-0.405
24.797,-0.415
24.8,-0.39
24.803,-0.4
24.806,-0.41
24.808,-0.44
24.811,-0.44
24.814,-0.445
24.817,-0.435
24.819,-0.445
24.822,-0.44
24.825,-0.45
24.828,-0.45
24.831,-0.44
24.833,-0.43
24.836,-0.44
24.839,-0.445
24.842,-0.455
24.844,-0.45
24.847,-0.43
24.85,-0.405
24.853,-0.41
24.856,-0.4
24.858,-0.4
24.861,-0.395
24.864,-0.375
24.867,-0.35
24.869,-0.33
24.872,-0.32
24.875,-0.32
24.878,-0.33
24.881,-0.305
24.883,-0.3
24.886,-0.295
24.889,-0.3
24.892,-0.32
24.894,-0.31
24.897,-0.295
24.9,-0.28
24.903,-0.265
24.906,-0.28
24.908,-0.29
24.911,-0.29
24.914,-0.29
24.917,-0.275
24.919,-0.28
24.922,-0.285
24.925,-0.29
24.928,-0.29
24.931,-0.275
24.933,-0.26
24.936,-0.28
24.939,-0.28
24.942,-0.29
24.944,-0.29
24.947,-0.285
24.95,-0.27
24.953,-0.285
24.956,-0.28
24.958,-0.305
24.961,-0.31
24.964,-0.295
24.967,-0.285
24.969,-0.285
24.972,-0.295
24.975,-0.3
24.978,-0.3
24.981,-0.29
24.983,-0.295
24.986,-0.305
24.989,-0.315
24.992,-0.325
24.994,-0.32
24.997,-0.31
25,-0.295
25.003,-0.305
25.006,-0.33
25.008,-0.33
25.011,-0.335
25.014,-0.31
25.017,-0.295
25.019,-0.305
25.022,-0.31
25.025,-0.305
25.028,-0.31
25.031,-0.315
25.033,-0.305
25.036,-0.305
25.039,-0.305
25.042,-0.32
25.044,-0.32
25.047,-0.31
25.05,-0.305
25.053,-0.31
25.056,-0.305
25.058,-0.325
25.061,-0.32
25.064,-0.315
25.067,-0.3
25.069,-0.305
25.072,-0.31
25.075,-0.33
25.078,-0.32
25.081,-0.305
25.083,-0.31
25.086,-0.31
25.089,-0.32
25.092,-0.325
25.094,-0.315
25.097,-0.305
25.1,-0.295
25.103,-0.295
25.106,-0.305
25.108,-0.32
25.111,-0.325
25.114,-0.315
25.117,-0.305
25.119,-0.31
25.122,-0.32
25.125,-0.32
25.128,-0.31
25.131,-0.32
25.133,-0.305
25.136,-0.31
25.139,-0.3
25.142,-0.315
25.144,-0.315
25.147,-0.305
25.15,-0.305
25.153,-0.3
25.156,-0.3
25.158,-0.32
25.161,-0.315
25.164,-0.31
25.167,-0.305
25.169,-0.3
25.172,-0.295
25.175,-0.295
25.178,-0.31
25.181,-0.295
25.183,-0.285
25.186,-0.29
25.189,-0.305
25.192,-0.305
25.194,-0.295
25.197,-0.285
25.2,-0.275
25.203,-0.275
25.206,-0.28
25.208,-0.285
25.211,-0.295
25.214,-0.275
25.217,-0.275
25.219,-0.265
25.222,-0.245
25.225,-0.255
25.228,-0.265
25.231,-0.26
25.233,-0.25
25.236,-0.255
25.239,-0.265
25.242,-0.26
25.244,-0.265
25.247,-0.265
25.25,-0.27
25.253,-0.295
25.256,-0.295
25.258,-0.315
25.261,-0.305
25.264,-0.295
25.267,-0.285
25.269,-0.295
25.272,-0.32
25.275,-0.31
25.278,-0.325
25.281,-0.31
25.283,-0.31
25.286,-0.305
25.289,-0.31
25.292,-0.315
25.294,-0.32
25.297,-0.315
25.3,-0.31
25.303,-0.315
25.306,-0.315
25.308,-0.325
25.311,-0.32
25.314,-0.32
25.317,-0.305
25.319,-0.31
25.322,-0.31
25.325,-0.325
25.328,-0.33
25.331,-0.315
25.333,-0.315
25.336,-0.305
25.339,-0.31
25.342,-0.325
25.344,-0.335
25.347,-0.355
25.35,-0.37
25.353,-0.395
25.356,-0.425
25.358,-0.445
25.361,-0.425
25.364,-0.34
25.367,-0.235
25.369,-0.14
25.372,-0.05
25.375,-0.01
25.378,0.06
25.381,0.18
25.383,0.315
25.386,0.42
25.389,0.43
25.392,0.27
25.394,-0.04
25.397,-0.33
25.4,-0.48
25.403,-0.485
25.406,-0.455
25.408,-0.42
25.411,-0.385
25.414,-0.355
25.417,-0.32
25.419,-0.335
25.422,-0.34
25.425,-0.335
25.428,-0.35
25.431,-0.345
25.433,-0.34
25.436,-0.345
25.439,-0.335
25.442,-0.34
25.444,-0.345
25.447,-0.335
25.45,-0.34
25.453,-0.33
25.456,-0.345
25.458,-0.345
25.461,-0.35
25.464,-0.335
25.467,-0.32
25.469,-0.335
25.472,-0.33
25.475,-0.34
25.478,-0.33
25.481,-0.32
25.483,-0.315
25.486,-0.315
25.489,-0.32
25.492,-0.335
25.494,-0.335
25.497,-0.32
25.5,-0.315
25.503,-0.31
25.506,-0.32
25.508,-0.32
25.511,-0.32
25.514,-0.32
25.517,-0.31
25.519,-0.305
25.522,-0.315
25.525,-0.31
25.528,-0.32
25.531,-0.31
25.533,-0.305
25.536,-0.31
25.539,-0.32
25.542,-0.315
25.544,-0.315
25.547,-0.31
25.55,-0.31
25.553,-0.305
25.556,-0.31
25.558,-0.33
25.561,-0.32
25.564,-0.315
25.567,-0.305
25.569,-0.3
25.572,-0.33
25.575,-0.335
25.578,-0.34
25.581,-0.33
25.583,-0.31
25.586,-0.315
25.589,-0.32
25.592,-0.34
25.594,-0.34
25.597,-0.335
25.6,-0.32
25.603,-0.34
25.606,-0.36
25.608,-0.375
25.611,-0.375
25.614,-0.375
25.617,-0.37
25.619,-0.375
25.622,-0.395
25.625,-0.405
25.628,-0.425
25.631,-0.425
25.633,-0.415
25.636,-0.415
25.639,-0.42
25.642,-0.445
25.644,-0.46
25.647,-0.45
25.65,-0.44
25.653,-0.43
25.656,-0.435
25.658,-0.445
25.661,-0.435
25.664,-0.42
25.667,-0.41
25.669,-0.405
25.672,-0.4
25.675,-0.4
25.678,-0.375
25.681,-0.355
25.683,-0.34
25.686,-0.32
25.689,-0.315
25.692,-0.305
25.694,-0.3
25.697,-0.275
25.7,-0.26
25.703,-0.25
25.706,-0.245
25.708,-0.26
25.711,-0.245
25.714,-0.23
25.717,-0.22
25.719,-0.22
25.722,-0.225
25.725,-0.235
25.728,-0.225
25.731,-0.235
25.733,-0.22
25.736,-0.215
25.739,-0.22
